b,g,r
67.01016998291016,78.12025451660156,101.21769714355469
66.96894836425781,78.07588958740234,101.15535736083984
66.9955062866211,78.0962905883789,101.18399810791016
67.18645477294922,78.2764892578125,101.35910034179688
67.30986022949219,78.3637924194336,101.4411392211914
67.01537322998047,78.01068878173828,101.19561767578125
66.86912536621094,77.90275573730469,101.12545013427734
67.02095794677734,78.04615020751953,101.27831268310547
67.11001586914062,78.13456726074219,101.39739227294922
67.13565063476562,78.16938781738281,101.49308013916016
67.28475189208984,78.3194580078125,101.60225677490234
67.50711059570312,78.5012435913086,101.81603240966797
67.63134002685547,78.60343933105469,101.92437744140625
67.60113525390625,78.52039337158203,101.83293914794922
67.47356414794922,78.38591003417969,101.75750732421875
67.64263153076172,78.51803588867188,101.91614532470703
67.67069244384766,78.46833801269531,101.91169738769531
67.642822265625,78.39078521728516,101.89512634277344
67.70729064941406,78.37515258789062,101.93135833740234
67.96820068359375,78.62535858154297,102.14925384521484
68.1156234741211,78.75725555419922,102.30839538574219
68.08223724365234,78.77468872070312,102.33953094482422
68.37569427490234,78.9154281616211,102.57022857666016
68.59365844726562,78.9456558227539,102.75384521484375
68.48300170898438,78.77104949951172,102.64070892333984
68.53455352783203,78.7499008178711,102.66239929199219
68.64421844482422,78.84001922607422,102.75299072265625
68.70223999023438,78.95015716552734,102.83645629882812
68.80256652832031,79.07782745361328,102.93640899658203
68.8418197631836,79.11331939697266,102.93028259277344
68.9990005493164,79.2926025390625,103.0095443725586
69.15707397460938,79.4363784790039,103.11957550048828
69.41584014892578,79.47416687011719,103.23018646240234
69.48899841308594,79.52378845214844,103.30194854736328
69.5124740600586,79.53711700439453,103.31143188476562
69.46376037597656,79.4457778930664,103.24007415771484
69.47974395751953,79.45603942871094,103.28018188476562
69.47126007080078,79.45934295654297,103.253662109375
69.30060577392578,79.33928680419922,103.09465026855469
69.43657684326172,79.43788146972656,103.20955657958984
69.49504852294922,79.4602279663086,103.23431396484375
69.52484893798828,79.49175262451172,103.24551391601562
69.52620697021484,79.49757385253906,103.24188995361328
69.52827453613281,79.46829986572266,103.2276611328125
69.73865509033203,79.614501953125,103.3136215209961
69.798583984375,79.67825317382812,103.38978576660156
69.83241271972656,79.70352935791016,103.4261245727539
69.97534942626953,79.85221099853516,103.54979705810547
69.87165832519531,79.73729705810547,103.45774841308594
70.09723663330078,79.86448669433594,103.62586975097656
70.3856430053711,80.06090545654297,103.87425994873047
70.39509582519531,80.06412506103516,103.96666717529297
70.58148193359375,80.265380859375,104.13929748535156
70.5793228149414,80.2652359008789,104.1419448852539
70.52029418945312,80.19467163085938,104.060546875
70.33828735351562,80.17293548583984,104.00263977050781
70.35293579101562,80.2228775024414,104.05262756347656
70.4040298461914,80.29821014404297,104.08148193359375
70.41582489013672,80.27794647216797,104.07080841064453
70.5883560180664,80.43206024169922,104.19313049316406
70.5638656616211,80.4114761352539,104.1878662109375
70.69276428222656,80.55648803710938,104.32474517822266
70.55196380615234,80.43951416015625,104.19784545898438
70.71485900878906,80.60304260253906,104.333740234375
70.74500274658203,80.62933349609375,104.36074829101562
70.7689208984375,80.65435028076172,104.38256072998047
70.64096069335938,80.53939819335938,104.30814361572266
70.64947509765625,80.49492645263672,104.31982421875
70.78462219238281,80.5960464477539,104.45193481445312
70.85210418701172,80.6790771484375,104.57247924804688
70.95858001708984,80.77884674072266,104.67434692382812
71.1118392944336,80.91564178466797,104.78753662109375
71.15193939208984,80.94845581054688,104.8320083618164
71.17119598388672,80.91799926757812,104.86519622802734
71.31892395019531,81.06360626220703,105.00770568847656
71.1397933959961,80.86910247802734,104.79788970947266
71.21109771728516,80.90213775634766,104.85057067871094
71.13433074951172,80.814208984375,104.7284164428711
71.12715911865234,80.75353240966797,104.6806640625
71.49239349365234,81.02629089355469,104.99333190917969
71.49502563476562,80.98130798339844,104.99539947509766
71.66800689697266,81.10380554199219,105.14350891113281
72.0704116821289,81.25845336914062,105.34125518798828
71.74151611328125,80.93702697753906,105.13655090332031
71.78468322753906,80.9747314453125,105.18814086914062
71.8447494506836,81.03336334228516,105.2744140625
71.83841705322266,81.02853393554688,105.27719116210938
71.68523406982422,80.94993591308594,105.24126434326172
71.79498291015625,81.0455551147461,105.32552337646484
71.70767211914062,80.97408294677734,105.27497863769531
71.65013885498047,80.92499542236328,105.27278900146484
71.62867736816406,80.90582275390625,105.2662124633789
71.89707946777344,81.17622375488281,105.50650787353516
71.86943054199219,81.15027618408203,105.49009704589844
71.8280258178711,81.11583709716797,105.47715759277344
71.7903060913086,81.08428192138672,105.4741439819336
71.74497985839844,81.01944732666016,105.46839141845703
71.8890380859375,81.14517974853516,105.58245086669922
72.03780364990234,81.27730560302734,105.69784545898438
71.97116088867188,81.2047119140625,105.64727783203125
72.06024932861328,81.29045104980469,105.71253204345703
72.05494689941406,81.29438018798828,105.70864868164062
71.96562194824219,81.19953155517578,105.62031555175781
71.97614288330078,81.21377563476562,105.61066436767578
71.86795043945312,81.1068115234375,105.51728820800781
71.78601837158203,81.03607177734375,105.44816589355469
71.80786895751953,80.97428894042969,105.40054321289062
71.80138397216797,80.95140075683594,105.3637466430664
71.82612609863281,80.95970916748047,105.3684310913086
71.61725616455078,80.73422241210938,105.16477966308594
71.56632995605469,80.69933319091797,105.14033508300781
71.40907287597656,80.57630157470703,104.98880004882812
71.45664978027344,80.62427520751953,104.96267700195312
71.41710662841797,80.59669494628906,104.92405700683594
71.35486602783203,80.5359115600586,104.8824462890625
71.29305267333984,80.47705841064453,104.84412384033203
71.05309295654297,80.2391586303711,104.59516906738281
71.07811737060547,80.25557708740234,104.60023498535156
70.99100494384766,80.17362976074219,104.53187561035156
71.32107543945312,80.47684478759766,104.76356506347656
71.94294738769531,81.060546875,105.24197387695312
71.9373779296875,81.09588623046875,105.29967498779297
72.02439880371094,81.08699798583984,105.37372589111328
72.47484588623047,81.51358032226562,105.7437744140625
72.55631256103516,81.56697082519531,105.79671478271484
72.7491455078125,81.7211685180664,105.94526672363281
72.95245361328125,81.9071044921875,106.1436538696289
73.05399322509766,82.01744842529297,106.25276184082031
73.19561767578125,82.15391540527344,106.38302612304688
73.25433349609375,82.28485107421875,106.52896881103516
73.21373748779297,82.26898956298828,106.52818298339844
73.1269760131836,82.2587661743164,106.53488159179688
73.08999633789062,82.3812026977539,106.63231658935547
73.0594711303711,82.52449035644531,106.72637176513672
73.095458984375,82.76152038574219,106.91175079345703
73.22196960449219,82.9527816772461,107.0604476928711
73.24949645996094,83.0410385131836,107.1416015625
73.28158569335938,83.10447692871094,107.17532348632812
73.01912689208984,83.0510482788086,107.10393524169922
73.0986099243164,83.19435119628906,107.25898742675781
73.00895690917969,83.1289291381836,107.18400573730469
72.9057846069336,83.07533264160156,107.09498596191406
73.0024185180664,83.17119598388672,107.1874771118164
73.01204681396484,83.2021255493164,107.21919250488281
72.94480895996094,83.1644058227539,107.17269897460938
72.87873840332031,83.17234802246094,107.17838287353516
72.89024353027344,83.20166015625,107.2297134399414
72.8869857788086,83.18653869628906,107.20701599121094
72.90760040283203,83.21023559570312,107.22765350341797
73.0264892578125,83.34344482421875,107.36780548095703
72.98682403564453,83.33776092529297,107.3753662109375
73.16922760009766,83.56405639648438,107.57380676269531
73.22624206542969,83.67486572265625,107.66011810302734
73.56743621826172,83.98878479003906,107.93373107910156
73.68285369873047,84.11860656738281,108.04318237304688
73.80033874511719,84.25479125976562,108.17696380615234
73.7791976928711,84.247802734375,108.18683624267578
73.87906646728516,84.3454818725586,108.29466247558594
73.84136199951172,84.31232452392578,108.26504516601562
73.73795318603516,84.24365997314453,108.21862030029297
73.69804382324219,84.21066284179688,108.21617889404297
73.28781127929688,83.8342514038086,107.88236236572266
73.70572662353516,84.28590393066406,108.29380798339844
73.603515625,84.18144226074219,108.23295593261719
73.21063232421875,83.81536865234375,107.92923736572266
72.95075225830078,83.59146881103516,107.73143005371094
72.65644073486328,83.33259582519531,107.50556182861328
72.59199523925781,83.29225158691406,107.47831726074219
72.48651123046875,83.17595672607422,107.37438201904297
72.14702606201172,82.85917663574219,107.08238983154297
72.14476776123047,82.85095977783203,107.07662200927734
72.1212387084961,82.83950805664062,107.09036254882812
71.88956451416016,82.6484146118164,106.95740509033203
71.93159484863281,82.68991088867188,107.00348663330078
72.0360336303711,82.81375885009766,107.11492919921875
72.05895233154297,82.84417724609375,107.14805603027344
72.10002136230469,82.88782501220703,107.18312072753906
72.03704071044922,82.87638092041016,107.13644409179688
71.85299682617188,82.69995880126953,106.97761535644531
72.02826690673828,82.90776824951172,107.16670989990234
72.33382415771484,83.27351379394531,107.48584747314453
72.46862030029297,83.39430236816406,107.6130142211914
72.512451171875,83.44902038574219,107.64712524414062
72.62208557128906,83.56101989746094,107.7390365600586
72.71562957763672,83.66091918945312,107.81356811523438
72.80419921875,83.75601959228516,107.89546203613281
73.06128692626953,84.00666046142578,108.11869812011719
72.9395751953125,83.93600463867188,108.00865936279297
73.26071166992188,84.2569580078125,108.25132751464844
73.31071472167969,84.31498718261719,108.31253814697266
73.30575561523438,84.29072570800781,108.29801940917969
73.16464233398438,84.23706817626953,108.24481201171875
73.3548812866211,84.43907928466797,108.44054412841797
73.43126678466797,84.50801086425781,108.52029418945312
73.51358795166016,84.59127044677734,108.59376525878906
73.48123931884766,84.60321807861328,108.59447479248047
73.66825866699219,84.81059265136719,108.76656341552734
74.18196868896484,85.35612487792969,109.1872329711914
74.40311431884766,85.57022094726562,109.37715148925781
74.53290557861328,85.65238952636719,109.45771026611328
74.59982299804688,85.68505859375,109.48670196533203
74.7612075805664,85.86773681640625,109.6464614868164
74.80521392822266,85.8838119506836,109.66808319091797
74.92780303955078,85.99854278564453,109.76004028320312
75.01539611816406,86.03365325927734,109.80802154541016
75.05220031738281,86.04316711425781,109.82001495361328
75.11909484863281,86.05284118652344,109.85769653320312
75.05591583251953,86.00079345703125,109.8011245727539
75.0996322631836,86.04595947265625,109.84524536132812
75.08368682861328,86.05040740966797,109.83892059326172
74.72583770751953,85.75186920166016,109.5657958984375
74.7268295288086,85.75596618652344,109.57083129882812
74.70311737060547,85.73685455322266,109.55979919433594
74.74964904785156,85.77424621582031,109.60231018066406
74.71631622314453,85.74535369873047,109.57178497314453
74.74732208251953,85.78312683105469,109.60882568359375
74.73599243164062,85.77449798583984,109.60252380371094
74.73511505126953,85.77841186523438,109.60514831542969
74.81243133544922,85.87674713134766,109.68295288085938
74.92137145996094,85.97314453125,109.75894165039062
74.9384536743164,85.92418670654297,109.60846710205078
75.06659698486328,86.05591583251953,109.72346496582031
75.06031036376953,86.03788757324219,109.7108154296875
74.95352935791016,85.97660827636719,109.68475341796875
74.96067810058594,86.01305389404297,109.7260513305664
74.84314727783203,85.88888549804688,109.60448455810547
74.72845458984375,85.76325988769531,109.49565887451172
74.68854522705078,85.77281951904297,109.5264892578125
74.6927490234375,85.76227569580078,109.52468872070312
74.72686004638672,85.80128479003906,109.55631256103516
74.74174499511719,85.81858825683594,109.58467102050781
74.76580810546875,85.82875061035156,109.61333465576172
74.81987762451172,85.89007568359375,109.66934204101562
74.82783508300781,85.88436889648438,109.66606903076172
74.91809844970703,85.97844696044922,109.75202941894531
74.89302062988281,85.94678497314453,109.7248306274414
74.78638458251953,85.87329864501953,109.65840148925781
74.6960678100586,85.7952880859375,109.58706665039062
74.8464126586914,85.94422912597656,109.73399353027344
74.94384765625,86.0267562866211,109.83538055419922
75.04840087890625,86.16117858886719,109.94866943359375
75.14928436279297,86.2276611328125,110.03938293457031
75.317626953125,86.37600708007812,110.18657684326172
75.50659942626953,86.57255554199219,110.36357879638672
75.49761199951172,86.54113006591797,110.33441925048828
75.51692962646484,86.57315826416016,110.38209533691406
75.41897583007812,86.48211669921875,110.29468536376953
75.4769287109375,86.54845428466797,110.36041259765625
75.47807312011719,86.54590606689453,110.35880279541016
75.47441101074219,86.54145812988281,110.34369659423828
75.49810791015625,86.62145233154297,110.39032745361328
75.47944641113281,86.5961685180664,110.3644027709961
75.60941314697266,86.71086883544922,110.47118377685547
75.68476104736328,86.75830078125,110.49403381347656
75.70308685302734,86.75609588623047,110.5067138671875
75.72306823730469,86.76628112792969,110.53238677978516
75.67721557617188,86.74102020263672,110.49710083007812
75.59599304199219,86.68853759765625,110.45004272460938
75.64517211914062,86.79962158203125,110.51896667480469
75.61593627929688,86.77091979980469,110.49517822265625
75.59236907958984,86.81349182128906,110.54389953613281
75.68860626220703,86.88097381591797,110.60645294189453
75.74789428710938,86.95321655273438,110.63349151611328
75.9507827758789,87.14744567871094,110.81594848632812
76.17699432373047,87.36690521240234,110.98652648925781
76.22708129882812,87.4045639038086,110.98806762695312
76.09963989257812,87.26866912841797,110.86770629882812
76.01155853271484,87.1742935180664,110.75769805908203
75.73922729492188,86.97032165527344,110.51282501220703
75.70072937011719,86.90354919433594,110.44989013671875
76.06929779052734,87.28771209716797,110.79296112060547
76.14260864257812,87.3589859008789,110.84071350097656
76.17510223388672,87.36605072021484,110.87371063232422
76.12041473388672,87.30751037597656,110.80970001220703
76.12346649169922,87.29862976074219,110.80427551269531
76.25828552246094,87.42863464355469,110.92291259765625
76.26484680175781,87.41572570800781,110.92670440673828
76.40890502929688,87.52182006835938,111.03889465332031
76.50460052490234,87.59973907470703,111.11028289794922
76.54988098144531,87.64710235595703,111.150634765625
76.49330139160156,87.57809448242188,111.10575866699219
76.46785736083984,87.54754638671875,111.0646743774414
76.56175994873047,87.63577270507812,111.13744354248047
76.56013488769531,87.64031982421875,111.12682342529297
76.67777252197266,87.74530792236328,111.22679901123047
76.5157241821289,87.58406066894531,111.09329986572266
76.48734283447266,87.54580688476562,111.06788635253906
76.47058868408203,87.50039672851562,111.0407485961914
76.42095184326172,87.43826293945312,110.96810150146484
76.48208618164062,87.49695587158203,111.02085876464844
76.42335510253906,87.43330383300781,110.9732894897461
76.56387329101562,87.56962585449219,111.10212707519531
76.47896575927734,87.50323486328125,111.04396057128906
76.55870819091797,87.575927734375,111.11772918701172
76.50019836425781,87.53802490234375,111.092041015625
76.6566390991211,87.686767578125,111.23513793945312
76.5228271484375,87.56151580810547,111.1234359741211
76.75704956054688,87.78478240966797,111.3360595703125
76.7765121459961,87.79705810546875,111.35661315917969
76.82988739013672,87.852783203125,111.41162109375
78.48202514648438,89.62239074707031,112.64706420898438
78.58985137939453,89.72965240478516,112.71299743652344
78.64720916748047,89.78176879882812,112.75421142578125
78.9376449584961,90.05567932128906,113.02027893066406
79.05171203613281,90.16842651367188,113.13101196289062
79.00739288330078,90.12397003173828,113.09417724609375
79.09032440185547,90.2410888671875,113.18185424804688
79.07279205322266,90.24398803710938,113.16487121582031
79.10977172851562,90.27787017822266,113.19532775878906
79.14520263671875,90.31858825683594,113.23239135742188
79.00566864013672,90.16505432128906,113.09320068359375
79.08219909667969,90.21953582763672,113.13744354248047
78.97823333740234,90.09181213378906,112.98249816894531
79.16802215576172,90.26253509521484,113.14962005615234
79.15325164794922,90.26466369628906,113.14820098876953
79.27042388916016,90.37456512451172,113.2556381225586
79.06149291992188,90.19136810302734,113.07699584960938
78.90555572509766,90.056640625,112.96759796142578
78.40099334716797,89.48664093017578,112.48946380615234
78.31578063964844,89.39509582519531,112.40987396240234
78.0431137084961,89.1492919921875,112.20538330078125
78.14453887939453,89.24078369140625,112.2945556640625
77.62679290771484,88.7230224609375,111.85601806640625
77.36507415771484,88.42628479003906,111.61026763916016
77.4981918334961,88.54039764404297,111.72022247314453
77.53230285644531,88.57335662841797,111.7485122680664
77.2591323852539,88.30184936523438,111.5455551147461
77.13504028320312,88.14252471923828,111.41630554199219
77.09162902832031,88.0893783569336,111.35985565185547
76.91100311279297,87.9359359741211,111.23284912109375
74.61304473876953,85.44190216064453,109.22019958496094
74.61357879638672,85.43769836425781,109.22286224365234
74.68063354492188,85.49688720703125,109.28514862060547
74.70203399658203,85.52477264404297,109.31156921386719
74.61507415771484,85.40029907226562,109.20674133300781
74.49573516845703,85.25208282470703,109.09346008300781
74.71726989746094,85.43494415283203,109.29034423828125
74.66080474853516,85.38401794433594,109.2250747680664
74.88970947265625,85.59709930419922,109.4150390625
74.94664764404297,85.66883087158203,109.49272155761719
74.88453674316406,85.6268310546875,109.45069122314453
74.96722412109375,85.71876525878906,109.52059936523438
74.99150848388672,85.73970794677734,109.5431900024414
75.01118469238281,85.78684997558594,109.5946044921875
74.89179229736328,85.67207336425781,109.45879364013672
74.80720520019531,85.57832336425781,109.3683853149414
74.87036895751953,85.63679504394531,109.42082977294922
74.78925323486328,85.55817413330078,109.33723449707031
74.78697204589844,85.55765533447266,109.30844116210938
74.64266204833984,85.3637924194336,109.15830993652344
74.72318267822266,85.42549896240234,109.1971664428711
74.74049377441406,85.40621185302734,109.19625091552734
74.7205581665039,85.40508270263672,109.18868255615234
74.68810272216797,85.3650894165039,109.1558609008789
74.68551635742188,85.36597442626953,109.16731262207031
74.74359130859375,85.42586517333984,109.24115753173828
74.823974609375,85.48322296142578,109.2833023071289
74.72868347167969,85.42229461669922,109.19172668457031
74.64338684082031,85.3308334350586,109.10845184326172
74.52940368652344,85.21326446533203,108.99726104736328
74.6636734008789,85.35945129394531,109.09785461425781
74.65139770507812,85.34028625488281,109.10421752929688
74.70022583007812,85.36982727050781,109.12342834472656
74.76175689697266,85.39543914794922,109.17835998535156
74.93377685546875,85.55323028564453,109.32970428466797
75.03407287597656,85.6507797241211,109.40801239013672
75.07424926757812,85.69466400146484,109.45132446289062
74.92990112304688,85.58334350585938,109.34979248046875
74.91205596923828,85.59680938720703,109.3625259399414
74.90653991699219,85.6263427734375,109.33855438232422
74.97985076904297,85.69867706298828,109.4010238647461
75.02403259277344,85.72496032714844,109.41188049316406
75.09095001220703,85.76991271972656,109.4574203491211
75.22115325927734,85.86271667480469,109.54037475585938
75.32073974609375,85.94881439208984,109.65692901611328
75.38546752929688,86.00049591064453,109.71688842773438
75.33644104003906,85.97138977050781,109.64892578125
75.4488525390625,86.07817840576172,109.74775695800781
75.42021179199219,86.05305480957031,109.73005676269531
75.42687225341797,86.06353759765625,109.74744415283203
75.47025299072266,86.13042449951172,109.82015991210938
75.2696533203125,85.99810028076172,109.7090835571289
75.26773834228516,86.01078796386719,109.74967193603516
75.22567749023438,85.92964172363281,109.70268249511719
75.38761138916016,86.10136413574219,109.89215850830078
75.28992462158203,86.02891540527344,109.83893585205078
75.44831085205078,86.1827163696289,109.9751205444336
75.2893295288086,86.08364868164062,109.869140625
75.23233795166016,86.03646087646484,109.82750701904297
75.19271850585938,85.98039245605469,109.81010437011719
75.10371398925781,85.91769409179688,109.73844146728516
75.26638793945312,86.10254669189453,109.9027099609375
75.27921295166016,86.0951919555664,109.88594055175781
75.40597534179688,86.24095916748047,109.99777221679688
75.70207977294922,86.53136444091797,110.26203155517578
75.4857406616211,86.3236083984375,110.08773040771484
75.52009582519531,86.36471557617188,110.11104583740234
75.57088470458984,86.39237213134766,110.1423110961914
75.62660217285156,86.43683624267578,110.19891357421875
75.58837890625,86.39608764648438,110.1600570678711
75.53111267089844,86.32054138183594,110.11554718017578
75.4816665649414,86.2646713256836,110.02288818359375
75.42256164550781,86.20561981201172,109.97613525390625
75.43743896484375,86.22461700439453,109.98773956298828
75.42237854003906,86.20832824707031,109.97398376464844
75.42191314697266,86.201904296875,109.96987915039062
75.31539154052734,86.10803985595703,109.87715148925781
75.3314208984375,86.11490631103516,109.88236236572266
75.25143432617188,86.0388412475586,109.82563018798828
75.25875854492188,86.05797576904297,109.84640502929688
75.31043243408203,86.10450744628906,109.89171600341797
75.17364501953125,86.02655792236328,109.78221893310547
75.26740264892578,86.12020874023438,109.87157440185547
75.40242767333984,86.25538635253906,109.99092102050781
75.34937286376953,86.20696258544922,109.94221496582031
75.26754760742188,86.12321472167969,109.85806274414062
75.22643280029297,86.06725311279297,109.80320739746094
75.11125946044922,85.92829895019531,109.67045593261719
75.17266845703125,85.96084594726562,109.7178726196289
75.46330261230469,86.22557830810547,109.97480773925781
75.36888122558594,86.1165542602539,109.88426208496094
75.64739227294922,86.37417602539062,110.10242462158203
75.5527114868164,86.29597473144531,110.02520751953125
75.50426483154297,86.25230407714844,109.98960876464844
75.45198822021484,86.20167541503906,109.92794036865234
75.54850769042969,86.29241180419922,110.01476287841797
75.52149963378906,86.26776885986328,109.98950958251953
75.54786682128906,86.29083251953125,110.00221252441406
75.48883819580078,86.23530578613281,109.96283721923828
75.4529037475586,86.18675231933594,109.91851043701172
75.50093078613281,86.22650909423828,109.96373748779297
75.48467254638672,86.18367767333984,109.92830657958984
75.4343490600586,86.13945007324219,109.8967056274414
75.5982437133789,86.3031005859375,110.05789184570312
75.54647827148438,86.21768951416016,110.00041961669922
75.61450958251953,86.3064193725586,110.06449890136719
75.57424926757812,86.27446746826172,110.04679870605469
75.47972106933594,86.16873931884766,109.96013641357422
75.39999389648438,86.12739562988281,109.94837188720703
75.67862701416016,86.446533203125,110.24221801757812
75.52657318115234,86.25253295898438,110.07423400878906
75.59375762939453,86.3089599609375,110.09618377685547
75.49212646484375,86.19554901123047,110.03095245361328
75.56216430664062,86.23426055908203,110.03520965576172
75.61769104003906,86.25167083740234,110.06590270996094
75.62432861328125,86.26659393310547,110.105224609375
75.66344451904297,86.33267974853516,110.13103485107422
75.73258972167969,86.39370727539062,110.14014434814453
75.74077606201172,86.38263702392578,110.15811920166016
75.76689910888672,86.42880249023438,110.11082458496094
75.40790557861328,86.03073120117188,109.80535125732422
75.29379272460938,85.89856719970703,109.70245361328125
75.40530395507812,86.03547668457031,109.80020904541016
75.57479095458984,86.20252227783203,109.95169067382812
75.46189880371094,86.04534912109375,109.8121566772461
75.55517578125,86.11260986328125,109.82369995117188
75.83190155029297,86.39736938476562,110.09388732910156
75.93734741210938,86.54159545898438,110.20209503173828
76.0923080444336,86.71540069580078,110.33464813232422
76.00202941894531,86.66105651855469,110.2701644897461
75.94296264648438,86.62151336669922,110.24600219726562
76.0456314086914,86.72698211669922,110.36043548583984
76.01240539550781,86.69800567626953,110.33671569824219
76.02755737304688,86.71047973632812,110.380859375
75.98485565185547,86.65577697753906,110.32947540283203
76.02204895019531,86.70337677001953,110.36637115478516
75.9912338256836,86.6631088256836,110.35865020751953
76.04120635986328,86.70472717285156,110.4066162109375
76.05702209472656,86.71075439453125,110.41453552246094
76.05024719238281,86.70581817626953,110.453857421875
75.94219970703125,86.62261962890625,110.33988189697266
75.85668182373047,86.55699157714844,110.27991485595703
75.93397521972656,86.61924743652344,110.36392974853516
75.99504089355469,86.64820098876953,110.38947296142578
76.11418914794922,86.76956176757812,110.50193786621094
76.0772933959961,86.73385620117188,110.48163604736328
75.98934173583984,86.67069244384766,110.41155242919922
75.8194808959961,86.52921295166016,110.25396728515625
75.90966033935547,86.63212585449219,110.34974670410156
75.82858276367188,86.60639953613281,110.32059478759766
75.89737701416016,86.68431091308594,110.4417495727539
75.91651916503906,86.71126556396484,110.46659088134766
75.68362426757812,86.49889373779297,110.29167175292969
75.67414855957031,86.50220489501953,110.3409423828125
75.87120056152344,86.67086029052734,110.5107650756836
75.9787826538086,86.730712890625,110.5972900390625
75.98213195800781,86.77330780029297,110.65971374511719
76.07184600830078,86.84840393066406,110.70763397216797
76.18851470947266,86.97136688232422,110.82999420166016
76.09152221679688,86.88758850097656,110.73274993896484
76.22393035888672,87.01082611083984,110.8564224243164
76.16522216796875,86.94664001464844,110.78128051757812
76.1363754272461,86.9223403930664,110.75749969482422
76.13188171386719,86.93318939208984,110.75914764404297
76.05561828613281,86.89973449707031,110.71617889404297
76.05946350097656,86.89669036865234,110.70325469970703
76.10520935058594,86.98096466064453,110.73897552490234
76.17484283447266,87.05105590820312,110.77824401855469
76.17952728271484,87.05613708496094,110.78345489501953
76.15750122070312,87.05957794189453,110.8078384399414
76.01231384277344,86.91757202148438,110.667724609375
75.81761169433594,86.7399673461914,110.53065490722656
75.94062042236328,86.86516571044922,110.60574340820312
75.89412689208984,86.85487365722656,110.56433868408203
76.00159454345703,86.96493530273438,110.66024780273438
75.8731918334961,86.83649444580078,110.55728912353516
75.97603607177734,86.87783813476562,110.59634399414062
75.83897399902344,86.76226806640625,110.49311828613281
75.70621490478516,86.60643768310547,110.35985565185547
75.70706939697266,86.57801055908203,110.3515853881836
75.4292221069336,86.28622436523438,110.09793090820312
75.41973876953125,86.24726104736328,110.05467987060547
75.72171020507812,86.50704956054688,110.32022094726562
75.58029174804688,86.37503814697266,110.19354248046875
75.96253204345703,86.76399230957031,110.54348754882812
75.84384155273438,86.65056610107422,110.4364013671875
75.97480773925781,86.71823120117188,110.48931884765625
75.80950927734375,86.57157135009766,110.36438751220703
75.67400360107422,86.46627044677734,110.23948669433594
75.73487091064453,86.5479965209961,110.27238464355469
75.79476165771484,86.60839080810547,110.31800079345703
75.78182983398438,86.5730972290039,110.2917709350586
75.83393859863281,86.60291290283203,110.3088607788086
75.89176940917969,86.65868377685547,110.35887908935547
75.89335632324219,86.64193725585938,110.3445816040039
75.94358825683594,86.66886138916016,110.37586975097656
75.93146514892578,86.65072631835938,110.30326843261719
76.06916046142578,86.73648071289062,110.43506622314453
76.28433227539062,86.87830352783203,110.56477355957031
76.1460952758789,86.74020385742188,110.43907928466797
76.22577667236328,86.84104919433594,110.4996337890625
76.07192993164062,86.77079772949219,110.4344482421875
76.05766296386719,86.7364501953125,110.41282653808594
76.07640838623047,86.76631164550781,110.44595336914062
76.1033706665039,86.79450225830078,110.46450805664062
76.016845703125,86.75316619873047,110.42220306396484
76.0225830078125,86.76494598388672,110.43632507324219
76.03729248046875,86.79118347167969,110.43717193603516
75.9906234741211,86.75460052490234,110.37737274169922
76.06922149658203,86.82244873046875,110.44365692138672
76.13277435302734,86.93887329101562,110.57185363769531
76.10232543945312,86.9144287109375,110.55106353759766
76.19143676757812,87.00852966308594,110.62266540527344
76.16345977783203,86.99067687988281,110.61019134521484
76.11454772949219,86.97676086425781,110.59265899658203
76.0966567993164,86.92640686035156,110.55919647216797
76.282958984375,87.13041687011719,110.71196746826172
76.24221801757812,87.05525970458984,110.65599060058594
76.29460906982422,87.10145568847656,110.68708038330078
76.2079086303711,86.9963607788086,110.6121826171875
76.115966796875,86.90245819091797,110.52520751953125
76.1745834350586,86.97673034667969,110.5566635131836
76.11170196533203,86.8779067993164,110.45439147949219
76.17382049560547,86.94271087646484,110.51045989990234
76.0616455078125,86.83480072021484,110.41222381591797
76.08683013916016,86.87301635742188,110.44442749023438
76.09759521484375,86.88562774658203,110.46263885498047
75.88511657714844,86.66046905517578,110.2431411743164
75.87965393066406,86.64879608154297,110.25517272949219
75.85200500488281,86.59980010986328,110.22549438476562
75.93138885498047,86.6503677368164,110.27545928955078
76.05367279052734,86.76814270019531,110.37906646728516
76.13651275634766,86.84513854980469,110.42914581298828
76.16488647460938,86.87744903564453,110.46595001220703
76.31438446044922,87.02373504638672,110.59814453125
76.39335632324219,87.09646606445312,110.66790008544922
76.5223617553711,87.22299194335938,110.79034423828125
76.56155395507812,87.24308776855469,110.81392669677734
76.74185180664062,87.44264221191406,110.98770141601562
76.76300048828125,87.44097137451172,111.00538635253906
78.07428741455078,88.84828186035156,112.16230773925781
78.39044952392578,89.16228485107422,112.39262390136719
78.66011047363281,89.44657897949219,112.62860870361328
78.59130859375,89.37992095947266,112.57158660888672
78.60871887207031,89.37488555908203,112.57927703857422
78.69291687011719,89.4334487915039,112.64392852783203
78.73875427246094,89.45868682861328,112.69432830810547
78.7706527709961,89.46983337402344,112.71690368652344
78.92738342285156,89.60061645507812,112.86917114257812
79.19527435302734,89.86731719970703,113.11607360839844
79.18791198730469,89.84783935546875,113.09436798095703
79.2508316040039,89.90673828125,113.1568603515625
79.226806640625,89.88694763183594,113.13856506347656
79.17057800292969,89.81745147705078,113.08499145507812
79.15312957763672,89.80299377441406,113.07316589355469
79.17076873779297,89.80756378173828,113.07198333740234
79.40428924560547,90.03001403808594,113.25829315185547
79.5343017578125,90.16832733154297,113.36319732666016
79.57112884521484,90.20829772949219,113.4140396118164
79.65282440185547,90.29351043701172,113.49052429199219
79.63774108886719,90.29035186767578,113.49097442626953
79.64765167236328,90.3060073852539,113.51438903808594
79.64442443847656,90.30001831054688,113.50679779052734
79.60623931884766,90.24945068359375,113.46503448486328
79.48094177246094,90.12733459472656,113.35016632080078
79.26676177978516,89.92225646972656,113.187744140625
79.31014251708984,89.96697998046875,113.23352813720703
79.17646789550781,89.8471450805664,113.11036682128906
79.21321868896484,89.87329864501953,113.1472396850586
79.19432067871094,89.85188293457031,113.12907409667969
75.41130828857422,85.70507049560547,109.809814453125
75.41800689697266,85.75753784179688,109.83708190917969
75.4281005859375,85.77565002441406,109.86524963378906
75.40354919433594,85.78148651123047,109.8701400756836
75.67009735107422,86.0658187866211,110.10143280029297
75.78947448730469,86.20394134521484,110.20280456542969
75.86650848388672,86.27029418945312,110.2652359008789
75.94464111328125,86.35504150390625,110.34402465820312
76.1392593383789,86.54708099365234,110.49635314941406
76.14151000976562,86.56155395507812,110.4818115234375
76.2154541015625,86.65756225585938,110.56165313720703
76.22844696044922,86.66675567626953,110.57416534423828
76.26202392578125,86.70048522949219,110.57733917236328
76.19577026367188,86.62604522705078,110.5243911743164
76.28389739990234,86.71835327148438,110.61570739746094
76.46675872802734,86.9344253540039,110.78541564941406
76.59751892089844,87.07984161376953,110.90850067138672
76.53932189941406,87.02323913574219,110.86904907226562
76.72161865234375,87.19664764404297,111.03694915771484
76.77151489257812,87.25902557373047,111.09872436523438
76.8688735961914,87.35197448730469,111.18075561523438
76.86920928955078,87.3360595703125,111.16949462890625
76.97400665283203,87.41918182373047,111.2374038696289
76.9937515258789,87.44154357910156,111.23815155029297
77.09849548339844,87.58998107910156,111.39666748046875
77.0473861694336,87.59239196777344,111.40866088867188
77.10245513916016,87.65581512451172,111.46173858642578
77.1623306274414,87.70214080810547,111.44163513183594
77.09149932861328,87.6843032836914,111.39441680908203
77.18282318115234,87.77786254882812,111.47708129882812
77.07272338867188,87.72576141357422,111.4148941040039
76.90812683105469,87.56356048583984,111.2857894897461
76.95616149902344,87.60133361816406,111.31605529785156
76.96143341064453,87.61148834228516,111.3391342163086
76.89932250976562,87.56684112548828,111.29297637939453
76.87284851074219,87.52281188964844,111.25125122070312
76.81359100341797,87.43850708007812,111.1888198852539
76.75463104248047,87.3841781616211,111.16703033447266
76.8805160522461,87.50699615478516,111.27166748046875
76.91197967529297,87.53852081298828,111.2958755493164
76.72439575195312,87.37088012695312,111.11470031738281
76.8927001953125,87.55501556396484,111.23770141601562
76.80380249023438,87.466064453125,111.1705322265625
76.78636932373047,87.43712615966797,111.15132141113281
76.792236328125,87.44473266601562,111.16127014160156
76.77418518066406,87.44055938720703,111.13907623291016
76.75196838378906,87.44046020507812,111.1259994506836
76.63727569580078,87.37139129638672,111.0581283569336
76.62303161621094,87.41575622558594,111.086669921875
76.60704040527344,87.41172790527344,111.07809448242188
76.7042236328125,87.52385711669922,111.17344665527344
76.72567749023438,87.54701232910156,111.20360565185547
76.82157135009766,87.6490707397461,111.32044982910156
76.86222076416016,87.69337463378906,111.36225128173828
76.89091491699219,87.73094177246094,111.3994140625
77.1425552368164,87.98047637939453,111.60102081298828
77.2486572265625,88.08782958984375,111.69023895263672
77.16352081298828,88.01708221435547,111.61654663085938
77.20074462890625,88.05037689208984,111.65052032470703
77.20512390136719,88.04443359375,111.6466293334961
76.94361877441406,87.80941772460938,111.4257583618164
76.83405303955078,87.69561767578125,111.35494995117188
76.75604248046875,87.61297607421875,111.30123901367188
76.71007537841797,87.5966796875,111.285888671875
76.70126342773438,87.62953186035156,111.2826919555664
76.6619644165039,87.59405517578125,111.24598693847656
76.67826843261719,87.61735534667969,111.27845001220703
76.64289093017578,87.59153747558594,111.25162506103516
76.77457427978516,87.73291778564453,111.38323974609375
76.68927764892578,87.63007354736328,111.31077575683594
76.66919708251953,87.62358093261719,111.285400390625
76.65025329589844,87.60416412353516,111.26099395751953
76.51720428466797,87.4851303100586,111.15217590332031
76.7370834350586,87.7145004272461,111.3586654663086
76.71676635742188,87.7059326171875,111.34943389892578
76.65386962890625,87.66243743896484,111.30947875976562
76.58943176269531,87.6066665649414,111.2589111328125
76.56059265136719,87.55691528320312,111.22821044921875
76.61055755615234,87.60340118408203,111.27359771728516
76.46746826171875,87.45230865478516,111.15290832519531
76.45376586914062,87.44306945800781,111.15657043457031
76.3896713256836,87.38445281982422,111.10430908203125
76.42310333251953,87.41014862060547,111.13800048828125
76.42414855957031,87.41487121582031,111.14158630371094
76.37287139892578,87.35669708251953,111.08992004394531
76.37971496582031,87.37664794921875,111.10260772705078
76.36133575439453,87.344482421875,111.08525085449219
76.29225158691406,87.2704086303711,111.04644775390625
76.29938507080078,87.29253387451172,111.04879760742188
76.31236267089844,87.31318664550781,111.0772933959961
76.10331726074219,87.11531066894531,110.94093322753906
76.1789321899414,87.20425415039062,111.02483367919922
76.22492980957031,87.2371597290039,111.07845306396484
76.26422882080078,87.27271270751953,111.12638092041016
76.40707397460938,87.39507293701172,111.20152282714844
76.3739242553711,87.33907318115234,111.16458892822266
76.38642883300781,87.3598861694336,111.1839599609375
76.35262298583984,87.30976104736328,111.16973114013672
76.31611633300781,87.25737762451172,111.15603637695312
76.37720489501953,87.29362487792969,111.2057876586914
76.39865112304688,87.307373046875,111.21929931640625
76.3985595703125,87.31478881835938,111.22743225097656
76.32894897460938,87.26195526123047,111.1584701538086
76.25794219970703,87.16548156738281,111.11550903320312
76.22563934326172,87.13501739501953,111.06378936767578
76.29928588867188,87.20000457763672,111.11385345458984
76.20709991455078,87.15753173828125,111.0803451538086
76.29290771484375,87.24641418457031,111.15699768066406
76.2602310180664,87.22599792480469,111.14274597167969
76.33077239990234,87.2879409790039,111.21489715576172
76.17041778564453,87.16791534423828,111.09849548339844
76.3255386352539,87.31936645507812,111.23249053955078
76.22023010253906,87.2015380859375,111.15292358398438
76.43065643310547,87.39755249023438,111.34036254882812
76.31470489501953,87.27162170410156,111.22899627685547
76.4822998046875,87.43939208984375,111.38007354736328
76.3767318725586,87.33902740478516,111.28600311279297
76.31918334960938,87.28455352783203,111.23055267333984
76.41366577148438,87.36843872070312,111.30669403076172
76.48949432373047,87.4309310913086,111.3570327758789
76.37984466552734,87.32588958740234,111.26060485839844
76.46688079833984,87.38490295410156,111.31482696533203
76.44625854492188,87.38207244873047,111.29729461669922
76.42768096923828,87.37890625,111.294677734375
76.45327758789062,87.37957000732422,111.29914855957031
76.70549774169922,87.64177703857422,111.48104095458984
76.80972290039062,87.73124694824219,111.56892395019531
77.04573822021484,87.98222351074219,111.81687927246094
77.15577697753906,88.09208679199219,111.91983032226562
77.3072509765625,88.28575897216797,112.06452941894531
77.5508041381836,88.56949615478516,112.27005767822266
77.71366882324219,88.77489471435547,112.38935089111328
77.75318145751953,88.80931854248047,112.45059967041016
77.96102142333984,89.0018539428711,112.62877655029297
78.03534698486328,89.04661560058594,112.6740951538086
78.08499908447266,89.1132583618164,112.7027816772461
78.00934600830078,89.03089141845703,112.64252471923828
77.91768646240234,88.97451782226562,112.59806060791016
77.86447143554688,88.91410827636719,112.53445434570312
77.80449676513672,88.93376922607422,112.52461242675781
77.66728973388672,88.82379913330078,112.40039825439453
77.72003936767578,88.8517074584961,112.43009948730469
77.73112487792969,88.84175872802734,112.40065002441406
77.67558288574219,88.77593994140625,112.35494232177734
77.67184448242188,88.76325988769531,112.33583068847656
77.70532989501953,88.78535461425781,112.35263061523438
77.69315338134766,88.77595520019531,112.33116912841797
77.74602508544922,88.84254455566406,112.38817596435547
77.86372375488281,88.9570083618164,112.50318908691406
77.92724609375,89.0048828125,112.56306457519531
77.82965850830078,88.87773895263672,112.42756652832031
77.86499786376953,88.91961669921875,112.48263549804688
77.8716812133789,88.9009017944336,112.47444152832031
78.02642822265625,89.02638244628906,112.59081268310547
78.19437408447266,89.17417907714844,112.71564483642578
78.3657455444336,89.33252716064453,112.85554504394531
78.36470794677734,89.34536743164062,112.85674285888672
78.31861877441406,89.29041290283203,112.80369567871094
78.3791275024414,89.36404418945312,112.85002136230469
78.4910659790039,89.47367095947266,112.94327545166016
78.2703628540039,89.27902221679688,112.76426696777344
78.13811492919922,89.16734313964844,112.64701843261719
78.13261413574219,89.17938995361328,112.63488006591797
78.05615997314453,89.12828826904297,112.58245849609375
78.02301788330078,89.10256958007812,112.55795288085938
78.35682678222656,89.46526336669922,112.84657287597656
78.58827209472656,89.69732666015625,113.05818939208984
78.605712890625,89.73804473876953,113.12012481689453
78.7645263671875,89.9232177734375,113.26504516601562
78.86043548583984,89.99142456054688,113.3328857421875
78.85612487792969,89.99009704589844,113.33232116699219
78.94955444335938,90.07667541503906,113.4141845703125
78.9883041381836,90.1041030883789,113.4508056640625
79.01148986816406,90.12196350097656,113.50191497802734
79.10090637207031,90.21672058105469,113.59920501708984
79.22172546386719,90.35557556152344,113.74342346191406
79.28389739990234,90.40703582763672,113.78231048583984
79.3045883178711,90.41210174560547,113.80538940429688
79.32269287109375,90.44561767578125,113.82662963867188
79.36184692382812,90.48136901855469,113.85800170898438
79.09768676757812,90.36595916748047,113.69771575927734
79.15097045898438,90.43085479736328,113.74333190917969
79.10452270507812,90.40599060058594,113.708984375
79.06147766113281,90.36186981201172,113.671142578125
79.17990112304688,90.48357391357422,113.76570129394531
79.2197494506836,90.52116394042969,113.78387451171875
79.18171691894531,90.49219512939453,113.73331451416016
79.3230972290039,90.66387176513672,113.88125610351562
79.34660339355469,90.67324829101562,113.89823150634766
79.36691284179688,90.68171691894531,113.91289520263672
79.3349609375,90.67051696777344,113.90940856933594
79.30049896240234,90.59217071533203,113.85287475585938
79.2579345703125,90.54239654541016,113.83526611328125
79.06904602050781,90.37506866455078,113.67475891113281
79.06067657470703,90.3896713256836,113.68889617919922
79.09274291992188,90.41365051269531,113.7181625366211
79.17610931396484,90.47462463378906,113.79351806640625
79.13227081298828,90.43132781982422,113.7403564453125
79.01871490478516,90.30985260009766,113.64039611816406
79.11768341064453,90.40534210205078,113.71928405761719
79.16008758544922,90.44149780273438,113.75550079345703
79.30453491210938,90.58152770996094,113.89469146728516
79.0932388305664,90.33853912353516,113.6885986328125
78.96073913574219,90.1731185913086,113.54349517822266
78.87142181396484,90.07987976074219,113.47660064697266
78.87816619873047,90.08795928955078,113.48624420166016
78.83918762207031,90.05438232421875,113.450439453125
78.73833465576172,89.9852294921875,113.36103057861328
78.707275390625,89.9619369506836,113.33761596679688
78.73848724365234,89.99634552001953,113.37744140625
78.12544250488281,89.3455581665039,112.8314437866211
78.23397064208984,89.43462371826172,112.89900207519531
78.06060028076172,89.24208068847656,112.77235412597656
78.1368637084961,89.30497741699219,112.82970428466797
78.22964477539062,89.38609313964844,112.91903686523438
78.3666000366211,89.49862670898438,113.03829193115234
78.40941619873047,89.5372085571289,113.0763931274414
78.36380004882812,89.48881530761719,113.033203125
78.36787414550781,89.4839859008789,113.01290130615234
78.2356185913086,89.36165618896484,112.90230560302734
78.1885757446289,89.31058502197266,112.86457824707031
78.2589111328125,89.374267578125,112.91819763183594
78.19486999511719,89.31324768066406,112.85773468017578
78.14557647705078,89.24909973144531,112.77899169921875
78.17729187011719,89.27047729492188,112.80850982666016
78.15185546875,89.23245239257812,112.79193878173828
78.33342742919922,89.42893981933594,112.95533752441406
78.44126892089844,89.55133819580078,113.05510711669922
78.45800018310547,89.56465911865234,113.07902526855469
78.47981262207031,89.59225463867188,113.11415100097656
78.62055206298828,89.73057556152344,113.21858215332031
78.72103118896484,89.81920623779297,113.34770965576172
78.77147674560547,89.85001373291016,113.38776397705078
78.82383728027344,89.89946746826172,113.42861938476562
78.8807373046875,89.9378433227539,113.4771728515625
78.9193344116211,89.96587371826172,113.49739837646484
78.94239807128906,90.02108001708984,113.55988311767578
78.92520141601562,89.98445129394531,113.48217010498047
78.96602630615234,90.01435089111328,113.5090560913086
79.05326080322266,90.0750961303711,113.55396270751953
79.10052490234375,90.2298812866211,113.58985900878906
79.08368682861328,90.19282531738281,113.5438003540039
79.1324462890625,90.2341079711914,113.5817642211914
79.09178924560547,90.1837158203125,113.51834106445312
79.011962890625,90.16845703125,113.46620178222656
78.99542999267578,90.16110229492188,113.46675109863281
78.90877532958984,90.07714080810547,113.37974548339844
78.86177062988281,90.05672454833984,113.36123657226562
79.03365325927734,90.22795867919922,113.5074462890625
79.1858901977539,90.3646469116211,113.65564727783203
79.34972381591797,90.49702453613281,113.76033782958984
79.29793548583984,90.49609375,113.74918365478516
79.43401336669922,90.63922119140625,113.86419677734375
79.5003890991211,90.7362289428711,113.95023345947266
79.59297943115234,90.8304214477539,114.03216552734375
79.58042907714844,90.82850646972656,114.03270721435547
79.47297668457031,90.76300811767578,113.94967651367188
79.52516174316406,90.81514739990234,113.98035430908203
79.3348617553711,90.62301635742188,113.81343078613281
79.11422729492188,90.4323501586914,113.62616729736328
79.09014129638672,90.39839935302734,113.5991439819336
79.17491149902344,90.48741149902344,113.68563079833984
79.07445526123047,90.42455291748047,113.6161117553711
79.08647155761719,90.46754455566406,113.66800689697266
79.04077911376953,90.4219970703125,113.60951232910156
79.19306182861328,90.57025146484375,113.73807525634766
79.2419204711914,90.60235595703125,113.8053207397461
79.34357452392578,90.68272399902344,113.90292358398438
79.29249572753906,90.5833969116211,113.83436584472656
79.31431579589844,90.55936431884766,113.82099151611328
79.3725357055664,90.64480590820312,113.87384796142578
79.47278594970703,90.746337890625,113.97502899169922
79.42021942138672,90.70527648925781,113.93750762939453
79.2707290649414,90.56318664550781,113.78636169433594
79.40451049804688,90.72711181640625,113.92073059082031
79.43897247314453,90.79598236083984,113.95405578613281
79.42420196533203,90.77777862548828,113.92001342773438
79.2812271118164,90.6361312866211,113.80679321289062
79.36138916015625,90.70695495605469,113.87020874023438
79.20081329345703,90.54584503173828,113.72187042236328
79.24405670166016,90.5992660522461,113.75473022460938
79.27912139892578,90.64472198486328,113.78968048095703
79.42369079589844,90.7791519165039,113.88768005371094
79.55843353271484,90.92121887207031,114.0491714477539
79.63711547851562,91.00204467773438,114.15101623535156
79.67948150634766,91.02847290039062,114.16081237792969
79.68892669677734,91.00853729248047,114.1201400756836
79.45967864990234,90.81546783447266,113.94744873046875
79.4158706665039,90.76545715332031,113.89888763427734
79.44923400878906,90.78118133544922,113.92020416259766
79.53880310058594,90.83892059326172,113.96881103515625
79.63711547851562,90.9350357055664,114.05826568603516
79.57350158691406,90.86322021484375,114.00542449951172
79.49703979492188,90.7794189453125,113.93453216552734
79.55223846435547,90.83354949951172,113.9998550415039
79.54258728027344,90.81814575195312,113.98746490478516
79.5775146484375,90.8621826171875,114.0699234008789
79.5862808227539,90.87215423583984,114.07953643798828
79.57896423339844,90.8598403930664,114.06581115722656
79.63726043701172,90.905517578125,114.09358215332031
88.2837142944336,100.09732818603516,121.57637023925781
88.49773406982422,100.31140899658203,121.7552490234375
88.5853271484375,100.40177917480469,121.82475280761719
88.59378814697266,100.42845153808594,121.8406982421875
88.66929626464844,100.49980163574219,121.91104125976562
88.73168182373047,100.59141540527344,121.98950958251953
88.71515655517578,100.60363006591797,122.00482177734375
88.70037078857422,100.58815002441406,121.9866714477539
88.76913452148438,100.65445709228516,122.0452880859375
88.71871948242188,100.62977600097656,122.0238037109375
88.74205017089844,100.64669036865234,122.04454040527344
88.7945556640625,100.69281005859375,122.1070785522461
88.80042266845703,100.70096588134766,122.10928344726562
88.81861114501953,100.72216033935547,122.12281036376953
88.83206176757812,100.73699951171875,122.1441650390625
88.6343002319336,100.55354309082031,121.9650650024414
88.61564636230469,100.55278778076172,121.9499740600586
88.6277084350586,100.58814239501953,121.9481201171875
88.60869598388672,100.58899688720703,121.93448638916016
88.61548614501953,100.60375213623047,121.9532470703125
88.5205307006836,100.51732635498047,121.87022399902344
88.55252838134766,100.55873107910156,121.90390014648438
88.61550903320312,100.6455307006836,121.95599365234375
88.6113052368164,100.64310455322266,121.95691680908203
88.56499481201172,100.62287902832031,121.92791748046875
88.58356475830078,100.64207458496094,121.9449691772461
88.58412170410156,100.65048217773438,121.9438247680664
88.63833618164062,100.7026596069336,121.990966796875
88.62313079833984,100.67691802978516,121.96101379394531
88.63346099853516,100.67938232421875,121.98369598388672
87.9041976928711,99.97089385986328,121.38323211669922
87.96526336669922,100.0317611694336,121.44551849365234
87.84945678710938,99.91757202148438,121.3638687133789
87.38174438476562,99.42633819580078,120.98584747314453
87.04579162597656,99.09708404541016,120.72342681884766
87.61859893798828,99.46188354492188,121.13301849365234
87.80464935302734,99.5622787475586,121.27149963378906
87.89527893066406,99.6294937133789,121.36581420898438
88.08649444580078,99.81487274169922,121.51663208007812
88.11087799072266,99.79660034179688,121.53884887695312
88.4048843383789,99.95539855957031,121.74632263183594
88.63813018798828,100.17046356201172,121.92977142333984
89.01231384277344,100.5068130493164,122.20489501953125
