b,g,r
0.0,0.0,0.0
0.0,0.0,0.0
0.5826980763067477,0.702481289907817,0.9456215168923753
0.5833489744876573,0.7030938258703916,0.9462038359984449
0.5841421758826851,0.70384612222078,0.9469480048105521
0.5850220116075505,0.7047366461337798,0.9478447075538243
0.5859241208273112,0.7057866551620016,0.9489061236533181
0.5867701096328867,0.7068659542221871,0.9499960811957234
0.5877956350461542,0.7081369277268402,0.9513016205028036
0.5885677749476094,0.7090830967593889,0.9523196065549023
0.5892545281676475,0.7099595519511533,0.9532700651215439
0.5900323003105432,0.7108534266913396,0.9543023456598304
0.5907583841617379,0.7115310423719939,0.9551273502072117
0.5916168375691512,0.7122021940455944,0.9560068354022829
0.5924110133181835,0.7126952765836924,0.9567300556032936
0.5934822442519173,0.7133675333173223,0.9576596962648638
0.5947582796444473,0.7141877255065108,0.9587438076832423
0.5961746695430864,0.7152094188567729,0.9599021363590843
0.5976547489229942,0.7163998299205673,0.9611860854073092
0.5991841579449705,0.7175380298685606,0.9624919930677326
0.600938310035737,0.7186499341407987,0.9639148707381577
0.602416155530854,0.7195881538705546,0.9651719656394298
0.6037719334809947,0.7202959032311528,0.9662924965093174
0.6048254715718911,0.720662711866743,0.9671522450946147
0.6058260143108364,0.7210061835356892,0.9680012044916674
0.6066165481147177,0.7213194621128624,0.9686706807516746
0.6070959302849234,0.7217280610293523,0.9692267398290868
0.6074068918007445,0.7221057539121145,0.9695530533616614
0.6078554154666863,0.7227831913572803,0.970050235315998
0.6085772216661539,0.7234258372350666,0.9705786916574051
0.6091870484493013,0.7238823933803625,0.9709611137217988
0.6097738353249526,0.7243015913672425,0.9713138061066899
0.6102345502983162,0.7245293287922416,0.97149217230134
0.6106988299814526,0.7246441599763797,0.9717726436662403
0.6108109995156271,0.7244362898671793,0.9717490809346441
0.6102853117654766,0.7240258729487056,0.9713566776828872
0.6099698705977081,0.7237801693864531,0.9711344536756696
0.6097020064230366,0.7235531092563107,0.9709379906377413
0.6094330134236038,0.7233905347259529,0.9707436070138469
0.6092223271936832,0.7233069422817878,0.9705794640111891
0.6090149442614851,0.7231928359219701,0.9703618741266757
0.5081527080368714,0.6030761937596467,0.809031167783765
0.4070786098222307,0.48279731637452494,0.6475220355703216
0.30592079763322677,0.3624721240355922,0.4859607920529516
0.20488272252717915,0.2422704797844275,0.3244891755052862
0.10381024955614224,0.12201194276529442,0.16291579309492932
0.0028506818357686677,0.001791416246465217,0.0015177915008018847
0.0030226919548553203,0.00180625296461713,0.0015852843953714532
0.0030827416033935586,0.0015866750282605058,0.001556576203258436
0.003107800786949869,0.001416613287117651,0.001506364493560543
0.0030005015705081924,0.0011111333707428052,0.0013840339522174835
0.0027508189999917616,0.0006808554737317093,0.0011470112504194095
0.002402920885692089,0.0004959061843166623,0.0009559785857377821
0.0018531003804468967,0.0002771664828624036,0.0006598565606208681
0.0013292876016242267,0.0002863578889716929,0.0003526437992172516
0.0009580150912275529,0.00036385679184631743,0.0001735453867737678
0.0008394579272061683,0.0006886773711581628,0.00020716456071896518
0.0008508387912599939,0.0011928998913478576,0.00040625465772331607
0.0010928790861161296,0.0016704162660527472,0.0006815945568917742
0.0012129165948907327,0.0020674500758038547,0.0008320144831355952
0.0013687807571410497,0.0025109097414482517,0.0011204958829215995
0.0015446234013249424,0.0029791428197487218,0.0014433998366122892
0.001254496293861342,0.0030319182159039464,0.0013351448818726718
0.0008616606560117159,0.003016096317591882,0.0012181241737766935
0.00043205034992599173,0.002836020910619023,0.000922626633001721
0.00023390371277447918,0.002755583894733612,0.0007907995727989381
0.00011297198995195702,0.0026747881634252534,0.0006719830431354414
0.00013699206060901702,0.0027459777940551135,0.0007304691043464939
0.00043929185978873215,0.003038000799012847,0.0010490180389037288
0.0008983973006770487,0.0033836747984671814,0.0014247952202291441
0.0013839255586355825,0.003765254403118337,0.0018717846086800695
0.0018634056923467752,0.0042109336947145515,0.0023153703594300124
0.0022201485117239158,0.004474581081776651,0.0025573497241524385
0.002392515299827061,0.004454667160698599,0.002537172278603216
0.002554980644444577,0.00443867283605423,0.0025293152621869903
0.0027903006032085533,0.0044306394325158835,0.0025110988030911286
0.003016177777811954,0.004429443010294981,0.002538258854954907
0.0032506828703276042,0.004417982468376395,0.0026724683295208944
0.0037051819140318876,0.004591280173835424,0.0030247899845979457
0.0040756375117716554,0.0044790778971412004,0.003172424024141383
0.004256646740678559,0.004098901071798983,0.00316984013766144
0.00443423780899297,0.0037151840935737614,0.0031452172349737757
0.004485974158262261,0.0033081358258349697,0.0030172696352120123
0.004374540010511119,0.0027424802856623213,0.002662327522376521
0.003821628307775158,0.0018829476953724621,0.0020718420622957098
0.0032975615763875016,0.0013110003104254261,0.0016366951678158479
0.002946744888967899,0.0009957089924935777,0.00132971662104641
0.00237546582108989,0.0005543148781233847,0.0010742472063059872
0.0018283826828845251,0.00012097568757553309,0.0008485646384520564
0.0013649360856246332,-0.00023082644405607284,0.0006967981760981197
0.0012070829473474702,-0.0003434193865365456,0.0006688698632674583
0.0010341298304997824,-0.0004569412659783483,0.0006583238674439108
0.0009298062225352457,-0.0005486211124321052,0.0007108333626549239
0.0009131999560465969,-0.0006560568440550934,0.0005586467926532355
0.0009893945712242472,-0.0006751190635502188,0.00046315468713604144
0.0010351309858415848,-0.0007561562709399263,0.0003122996022464239
0.0010897073525903101,-0.0008438919640712134,0.0001809392549728365
0.0013086486581865245,-0.0007760266233434525,0.0002287317149715098
0.0013893418050693021,-0.0008295646033387068,0.0001467709836997229
0.0014144104285051637,-0.0008745038432306545,8.48142154331973e-05
0.0013033322236261516,-0.0010013939124230346,-8.86094431040354e-05
0.001152997982443363,-0.0011587981613219894,-0.0002608060493219898
0.0009122440857234384,-0.0013735122492322892,-0.00047719858743086694
0.00047284568072072545,-0.0018346163040662458,-0.0009340858546567994
-3.150833765234949e-05,-0.002339539487765338,-0.0013888555522506665
-0.00033936551936654185,-0.002678229956722219,-0.0016666319965620868
-0.0006848041159498239,-0.003137396129704294,-0.0020019544749171263
-0.0010672977385916067,-0.0035859257368290745,-0.0023758599195587106
-0.0014388028132944902,-0.003991537426529832,-0.002712344097220532
-0.0017203570578084968,-0.004278827949198695,-0.00293355255823149
-0.0018598003184779105,-0.004433828527500179,-0.0030247214629533135
-0.0021055952429218363,-0.004679456834768828,-0.003214323754833129
-0.002361065581845865,-0.004886282616032063,-0.0033775096989286765
-0.0026848193887515598,-0.005181257728786263,-0.0035979678545454154
-0.0029654823237950994,-0.005485527492206379,-0.0038523983544258306
-0.003342094439364818,-0.005878760133103694,-0.004239384435565277
-0.003740264335323679,-0.006304148964647923,-0.004699653952234125
-0.004148639467255804,-0.006789025276796859,-0.005144841445907943
-0.00449644569125893,-0.007199404831830944,-0.005479967205092326
-0.004445368285191723,-0.007348229352411619,-0.005464199305531968
-0.004188826288888831,-0.007353939753415596,-0.005242580110740201
-0.0037677341208566303,-0.007222286835887112,-0.0049018506277931665
-0.0032322720685362487,-0.0070713385404395646,-0.004580297171000285
-0.00259368692328585,-0.006790024451744107,-0.004174838631792827
-0.0018761064892140568,-0.006464331178669754,-0.0038043419738782083
-0.0014346624689064824,-0.0063282626419442324,-0.0037196579363648827
-0.0008869627679373927,-0.005986377796951147,-0.0034874491770736267
-0.0004345228062185308,-0.005717624029151843,-0.0033033449879253805
-0.00017083343479514207,-0.00541451332451291,-0.003092897725587829
0.00011232096832738112,-0.0049077614447001,-0.002781700146763961
0.00016410867582348826,-0.004393040062072713,-0.0024556296745853346
0.0003815599327343729,-0.003369416883560788,-0.0017320948549313753
0.0005559050027346213,-0.002394479586937776,-0.0010951266356288237
0.0007713922365880592,-0.0013226913702430593,-0.00039218844498823275
0.0011623409547305925,-0.00013792033744000935,0.00046575441677100033
0.0011519104819101907,0.0007004844820812286,0.0010330874829564951
0.0011988711762945723,0.0014473315794644387,0.0015677712403098804
0.0010949043033591371,0.0017531007654361188,0.0017566834307819906
0.0007189375322850173,0.0017983848579919681,0.0017056235842117938
0.00035948685374357703,0.0018209160682012807,0.0016608933419348987
-0.00012237107341279038,0.001704250774871604,0.0014567995806476822
-0.0003299805627215639,0.0017041282544766807,0.0013748199696153763
-0.0004995614641229087,0.0017481108318856652,0.0013018003226097073
-0.0005731962216042852,0.0018658446139627775,0.0013092641647421343
-0.00044776187426160145,0.002125415689387981,0.0014981809761336902
-0.0003911882138300363,0.0023330699356074454,0.0016252462442113177
-0.00013894169280300595,0.0026949806599711043,0.001899423387861337
0.00010464443184477009,0.0030402148798601967,0.0021739309933125083
0.0004688014514695159,0.003505139115333682,0.0025878091129496253
0.0007033639754201533,0.0038874060488388925,0.0029073363623018686
0.0009177630486086648,0.004257226072029199,0.0032022944436663025
0.001106508093800378,0.00458770397777621,0.003504307217694881
0.001101882024700271,0.004710516018988992,0.003616153287464415
0.0010028575558516562,0.004729917281991699,0.003654926635658761
0.0007768033339957965,0.00450537172452842,0.003475229087921929
0.0005329814103977738,0.004194052945572429,0.003242192655832832
0.00011396892045209106,0.0036682568018406984,0.00282177355781503
-0.00028717183103570544,0.0031185095051721934,0.0023499797305304598
-0.0005925865264246895,0.002619878826379243,0.0019053542727663715
-0.0007939725605756569,0.0021845659748544423,0.00152297102410246
-0.0008969097604921014,0.001844151110551419,0.0012317669782066709
-0.0008526670912952252,0.0016560492974341157,0.00109165685275554
-0.0007009809009244868,0.0015910136761331153,0.001072115377837098
-0.0005551260476365797,0.0015558806887736045,0.0010886417684217425
-0.0004583597564142517,0.001496151203983137,0.0011053025617658023
-0.00033918860414142507,0.001446907907106773,0.0011220663356153453
-0.00031752256219630664,0.0013229849967067795,0.0010496507088771554
-0.00039753749003870357,0.0010876396888956261,0.0008492369163108996
-0.00040977936352908014,0.0009122782805310211,0.0007346499808042327
-0.00035062775780052687,0.0007637640217260534,0.0006535895367878286
-0.0002603590083109932,0.0006553831139082326,0.0006007988255827074
-0.00024292018405108116,0.0004774229000936911,0.0004944331670225149
-0.00022407660008909406,0.00030339825789448173,0.000395523957121653
-0.0002413147443913645,0.000109819070171923,0.00028982318294720717
-0.0003765846541020616,-0.00010311226677364107,8.859016726503051e-05
-0.0006063028694979394,-0.00034205647916629327,-0.00017595869529144991
-0.0008633309865928337,-0.0005785666549156573,-0.0004284683447104577
-0.0009427565490866021,-0.0005914866154204889,-0.0004954182151588654
-0.0008443970966489517,-0.00045536870086270603,-0.00038926115813240643
-0.0006567976435564442,-0.0002107044495487,-0.00018002814156178553
-0.00047373276534739975,-3.84649347872664e-05,-1.2112751781453206e-05
-0.0002900997780218694,0.00010192165371047605,0.0001487698616965063
-0.00015190046903557427,0.00018332246149655365,0.0002647433372786079
3.303363735691845e-05,0.000255703101269481,0.00037758712970595564
-7.058653454669503e-05,0.0001434601604788923,0.00022828982298720384
-5.907753898086912e-05,9.648481117636805e-05,0.00013158241549000572
5.103212105068802e-05,0.00014791948037779702,0.00014981973473881608
0.00032076341148519553,0.0003846707361286077,0.0003417257533161223
0.0005228736098234005,0.0006143933083920797,0.00048687637838471784
0.0007650065211204458,0.0009147346296166918,0.0006973413322473312
0.0011087378857754023,0.0012392405902838179,0.0009860420276975198
0.0013377291644303918,0.001516893061911589,0.0012215410141085097
0.001367866673135689,0.0016280164197819027,0.0012813126152833598
0.0012077255192894177,0.001579779955377027,0.001196492062587306
0.0010838589841155881,0.0015509514873154925,0.0012187886620825376
0.0007698293093912112,0.0013314023326900328,0.0010259795836976148
0.0006840450968211248,0.0013393599531387017,0.0010617039168010162
0.0006228655673113549,0.0013294455710776323,0.0011151968758301867
0.0006339588120977315,0.0013661987850416364,0.001217146387088222
0.0006881973235757493,0.001393449406937037,0.001293830687767788
0.0007272992852012033,0.001323825740108111,0.0012339230995153298
0.0008068302046720786,0.0012242529660857187,0.0012178164204999509
0.0007346971141886721,0.0009639432035796449,0.0010310122937649134
0.0006520090500953863,0.0006446245557625518,0.0007956537833257601
0.0006138413064824623,0.000398576008820225,0.0006333394767810641
0.0006487197471592581,0.00026439478787886625,0.0006050189138487936
0.0007515089456076766,0.0002614516578694398,0.0006598943201390731
0.0006392025001725121,0.00017326839562203613,0.000559895101206781
0.0005538612357983881,0.00014143685761712163,0.000487072569447423
0.00039871225994968495,0.00010835727511192987,0.0003738987113002419
0.0003198071450821348,9.735605264944224e-05,0.0002795551024618302
0.0001717824397531569,-5.296234537762144e-06,7.511305582601557e-05
-5.154279873218632e-05,-0.00018988271571482732,-0.00019963312112692826
-0.00011845002468825831,-0.0002760746254616371,-0.00033750936178729256
-0.00022171121711565592,-0.00040484078820615037,-0.0004999975469516028
-0.00025626157246788086,-0.0004268603965496505,-0.0005390433974048692
-0.00025579182293530763,-0.0004051315100917104,-0.0005250082108466486
-0.00022787011141864628,-0.0003342664000772154,-0.0004674561035962743
-9.246751528840343e-05,-0.00017737758180654738,-0.00030567927606968745
6.221487965915479e-05,6.646599410352016e-06,-0.00011462416691833524
0.00018177920621719634,0.0001564982845117613,3.867340429578223e-05
0.0001687965332261772,0.00014108817619145407,1.637363616983041e-05
-2.0309339811088486e-05,-6.775166609395184e-05,-0.00019018426375605566
-0.00040435704388789694,-0.0005015124165789894,-0.0005617256456870019
-0.0008416468570462928,-0.0009423503041978965,-0.0009573071662724012
-0.0013000790958928685,-0.0014373556731526397,-0.0014144582220220654
-0.0017033737242407932,-0.0018749179885706635,-0.001809366540563599
-0.00201824493452489,-0.002230207330543805,-0.0021306670349884177
-0.002255261695140718,-0.0025024850119926096,-0.0023602420018623495
-0.0022273662568548396,-0.0024959681944229355,-0.002339855954779394
-0.002126345154455139,-0.0024690341715668082,-0.0022968986935203895
-0.0020196803243267584,-0.0024146249500991875,-0.002214540431094377
-0.0018139411194130893,-0.002277021211697035,-0.0020568545701242446
-0.0018330713324463106,-0.0022579898863535545,-0.001989324708193443
-0.001927509736159429,-0.0022662796849425367,-0.002000130399723563
-0.001969891098750365,-0.0022472995857985294,-0.0019967532993052143
-0.0018804543789262664,-0.0021130482588978864,-0.0018703506711676356
-0.0016443950729503733,-0.0018364320616031063,-0.0016039288836904504
-0.0015152844536211523,-0.0016856939520060686,-0.0013938613289554286
-0.0010616475415762688,-0.0013228700018101704,-0.0009863178306109609
-0.00045841190679803915,-0.0008335000429266966,-0.00041300793437357483
4.846962282952236e-05,-0.0004147896291273623,8.173589050455093e-05
0.00043439315640377913,-0.00011841398151204743,0.00046638008934981603
0.0005910754855604855,-2.1556988230755154e-05,0.0006573975710081808
0.0007187357961171356,8.66367063106922e-05,0.0007697565629070353
0.0007758119486001307,0.000130437219469994,0.0008384094404413922
0.000765215122656304,0.00012437179977820205,0.0008041602370526178
0.0007408399012847941,0.00017114237630875873,0.0008062115294871652
0.0007409434098939807,0.0002878202121353896,0.0008640169951840887
0.0010024626652230305,0.0006519438291088163,0.0011289698581828688
0.0014191287839810118,0.001130985107439789,0.0015459310556918794
0.0017368084574597266,0.0015549418498395037,0.001889395991296796
0.00216990234316588,0.0020630413219733775,0.0023609777843650605
0.002571256449134907,0.0024580119569240296,0.002710034429340088
0.002816362724461977,0.002701337989784622,0.002954025478613061
0.002867960710182037,0.002806716619816743,0.003065488540121294
0.0028007920721752734,0.0028353169464529794,0.0030971109484873548
0.002870382864459417,0.0030553629159994745,0.0032798278054017777
0.0028686633540852807,0.003166194231720012,0.003350000305508893
0.002676099448516838,0.0031503465882815763,0.0032344141950571025
0.0027055953094623775,0.003339647464145381,0.0032982918137850355
0.0028112892182695546,0.0035747094435426546,0.0034087601892395405
0.002856438379958744,0.003737046326582293,0.0034197163907387774
0.002702916760133654,0.0036097584621838353,0.003183348407302536
0.0022881602696043428,0.003289970064834169,0.0027798177159510957
0.0019282897474677107,0.0029976971341138746,0.002455401137080842
0.0013266969157903331,0.0024603162117259316,0.0018281010708133475
0.0007838621194763919,0.001962996553971298,0.0013041022009371531
0.0003731860333997185,0.0015957263544785691,0.0009453661806929153
6.150576646783723e-05,0.0013016583943484367,0.0006929853889302709
-0.00021802372289567282,0.0010648243581154618,0.0004549124180114011
-0.00036048497248058515,0.0009438610810109571,0.0003673896832828581
-0.0003759843305711308,0.0009404262851050607,0.00045667892974263436
-0.0005178478971507123,0.0008002019569157091,0.0003857116313817527
-0.0006335281423461632,0.0006609472297840523,0.00035845784085563215
-0.000678832434923915,0.0006040305650565055,0.0003571453675278814
-0.0005833196012789903,0.0006297668454303478,0.0004779502130871778
-0.00047930678319528183,0.0006290380603208313,0.0005977581281456318
-0.00047908735550446354,0.0005159554323405674,0.00058658725190449
-0.00043763334556020566,0.0004518828107846787,0.0006047602743510445
-0.0006009936963833207,0.000219818752305511,0.00041683207580079545
-0.0009019877555752109,-0.00010282299717680695,0.00017632110745023757
-0.0010968012570635103,-0.0003374112662545235,9.611513750666777e-07
-0.0014352822003016357,-0.0007196630167364714,-0.00034359247299918814
-0.0016339356863721724,-0.0009887947757977282,-0.000575100700805556
-0.0019260618038606067,-0.0013665102350549272,-0.0009168962960269859
-0.0021291224594462603,-0.0016607685770921531,-0.001181825394292533
-0.0022552701448226384,-0.0019125093054103994,-0.0014076076419945929
-0.0024323929158932022,-0.0021717306431982787,-0.001639566739573723
-0.002487781244312094,-0.002263125973002698,-0.0017019449357515086
-0.0025552901140626053,-0.0023256020006606924,-0.0017325058527640363
-0.002440387107623202,-0.002193018165777033,-0.00153615741365379
-0.0022600947814606152,-0.0019940251080937943,-0.0012773516946201426
-0.002091929465917014,-0.001804038223638026,-0.0010394663330554237
-0.001797502658335883,-0.0015048712762437849,-0.0006937341100105463
-0.0013856955030508043,-0.0011046804538969008,-0.0002396856720264653
-0.0008917677326585875,-0.0006093116165724217,0.0003130318200399288
-0.0009457707092389186,-0.0009640797187616647,-0.00016333935864494903
-0.0009082628330123929,-0.0011954774405656518,-0.0005322270121878123
-0.0006637109360686878,-0.0012325390679388609,-0.0007247501216339637
-0.0002783547194539451,-0.0011375783682308956,-0.0007975334415835578
0.0002830872017406909,-0.0008285724257860693,-0.0007000898555051631
0.0008542764917440502,-0.0005211455177428346,-0.00058824972692
0.0018114128159995063,0.0005324007587836255,0.0003988141842442199
0.002472681925874032,0.0012799716242762958,0.001079374843275335
0.0030437872471569365,0.0019329690231632618,0.0016671047827008707
0.003353295681653901,0.0023594229107723546,0.002041872094949295
0.003220849814240987,0.0023123876215344606,0.001980524099894912
0.0030115841871774353,0.002189178049167453,0.0017916395029185094
0.002693211771766123,0.0019652651616754754,0.0014935769554226973
0.0025873018679521153,0.001908460323213818,0.0013921362734782405
0.002379294187360195,0.0017864096776020666,0.001236986109392663
0.0021777828602620704,0.0016359918637787255,0.0010652121193228427
0.002196665920084965,0.0016692610360326224,0.0010976078056565512
0.0019380670862430564,0.0014249775485335112,0.0008287799711095629
0.0017876812227808924,0.0012206561739247,0.0006179834992383902
0.0015321788014690527,0.0009304491905578038,0.0003040549566494518
0.0011862381089128267,0.0006013529399142213,-6.069208845567646e-05
0.0008499395602134347,0.0003019198275232085,-0.000402254525253168
0.00024514825968552763,-0.00015394806473357337,-0.0009246169292913667
-0.00018386601372425104,-0.00043825175669255894,-0.001194340034095806
-0.0005458954297196513,-0.0006793322864490368,-0.0013836576772989417
-0.0008760882907107886,-0.0008947442653179165,-0.0015383503702956316
-0.0011718568814552469,-0.0011352374101196118,-0.0016903268864734442
-0.001470452287049014,-0.0014115640737649982,-0.001872502699660552
-0.0016497290670070487,-0.001626731539948443,-0.0019978880652508765
-0.0017652767578088795,-0.001745741092045341,-0.002072383106024441
-0.0018833035062186662,-0.0018746213255021492,-0.002150836030854304
-0.0019939502491884303,-0.001994545687747355,-0.0022237162581012094
-0.0019731162369094547,-0.002015120268370901,-0.002203529174633193
-0.0019045386143589482,-0.0019560377123899754,-0.0021203660799561336
-0.0018276525775122086,-0.0019098679874954693,-0.00204233867585044
-0.0017517098684930897,-0.0018932185484107815,-0.0019735952282830447
-0.0015218837876197228,-0.0017178246615791714,-0.0017749740886535872
-0.0014002830875978363,-0.0016058119746350692,-0.0016501489106015318
-0.0012533066709943918,-0.0014664709023113343,-0.0014895504176951325
-0.0009468311443829202,-0.0011750141581028748,-0.00118691117892935
-0.0005720335981138967,-0.000802919718051363,-0.0008153913172831063
-0.00019621020758694025,-0.0004090052934037526,-0.00044039137471444707
-1.9731328721831983e-05,-0.00019575537702577772,-0.00023464345606558995
0.0001452452879173763,1.0225964100285995e-05,-2.9922437884197717e-06
8.499113065902227e-05,-6.02792422543872e-06,-4.3588346914237724e-05
-0.00028829088585156877,-0.00034831914613244684,-0.0004074550407319094
-0.0005988362548132784,-0.0006445656720388384,-0.0007331723425906395
-0.001001122202322503,-0.001013366188234068,-0.0011306197907007165
-0.0013242970739560443,-0.001288445467510931,-0.0014219088615236592
-0.0014574779317132805,-0.0014571354555231273,-0.001584594822070284
-0.001450585367328768,-0.001470133971669163,-0.0016029724852628803
-0.0012962494093611795,-0.0013591712897911717,-0.0014824463471958932
-0.001057861951824225,-0.0011459422335661454,-0.0012379108215116164
-0.0007922657247265252,-0.000915068128019805,-0.0009770116936576223
-0.0005193844190894355,-0.000671256766525599,-0.000711215710785887
-0.00026355840134583704,-0.00041059132519924674,-0.0004518263035325888
-1.3767965351917328e-05,-0.00021050825848387014,-0.00020574818270070885
6.162696659996058e-05,-8.370968350813413e-05,-3.209228992456016e-05
3.892253790066308e-05,-8.297588140068578e-05,8.307754163770303e-06
-3.203314214687025e-05,-0.0001447342141566839,-1.668719860289297e-05
-0.00018919433064982404,-0.00031213536154631205,-0.00019404101567691546
-0.00033635492392555604,-0.0004972387256403897,-0.0004039230734782663
-0.00033837162547332663,-0.000487643583142777,-0.0004382361775908106
-0.0001674389069085414,-0.00039264208731181296,-0.00039292752814546465
0.00024010155483184043,-7.943176772928267e-05,-0.00012879124773842172
0.0007131588736910934,0.00029302336814114745,0.0001955038669471486
0.0012185228931663767,0.0006973752630030621,0.0005851212320035368
0.0014971427214047286,0.0009394590605204058,0.0008059050964739309
0.0016043088553483735,0.0010198753482780858,0.0008693935017057574
0.0014536062608217185,0.0009588644163374386,0.0007733744792742707
0.0010486022881242797,0.0006680000740824018,0.00044294819580663504
0.0006404465838822645,0.0003322879861527698,9.094564826853098e-05
0.0004579207690066892,0.0002128539695405258,-5.0150449499723155e-05
0.0004592329782825882,0.00020420228689645972,-7.480490647078718e-05
0.0005566604571534063,0.0002594563445804458,1.774842590457459e-05
0.0009182428321378098,0.0004750849785886179,0.0002887837399834963
0.0012211445391631076,0.0006863253228393588,0.0005327394062105966
0.0015795172230642436,0.0009865161340962708,0.00085877568358164
0.0017626742556216865,0.0011280295669600423,0.0010266546341072755
0.0018492759749664078,0.0012124944408358179,0.001143931869280523
0.0019086683966438478,0.0013398764399779365,0.0012532703637649126
0.0016122660797178482,0.0012333650243954157,0.0010851400351879904
0.001375145546439565,0.0011465535152793787,0.0010064981807390517
0.0010508666709889136,0.0009318538182332447,0.0008105875407973692
0.0008456689058817539,0.0008216692992970316,0.0007181456386079943
0.0007025666686688375,0.0008213346126570442,0.0007591474585181061
0.0006463603053701907,0.0008480286117226731,0.0008406734272254153
0.0007706105089377834,0.0010305619520965628,0.0010939347022993176
0.0007558964432074278,0.001073389431513473,0.0011623368619141418
0.00084640812106562,0.0012216058390130523,0.0013637049404903207
0.0005372318647089686,0.0010180370142455744,0.0012280195440527342
0.0002301676328799145,0.0007657663324082415,0.0010141137210746365
-0.00016257769898852517,0.00043073695241321863,0.0007100904507338013
-0.0003504624608887585,0.0002222233470858801,0.0005524679623823191
-0.0003740859245773235,0.00016325010887258595,0.0005436154677539773
-0.00044165090550073025,9.763449609060804e-05,0.0004922083920468391
-0.00032523936669679685,0.00016684109187657648,0.0005502512410086609
-0.00015415178129742562,0.0003048472464035442,0.0006514175723269861
-7.45460029282687e-06,0.00040410447759831964,0.0007101771920057821
9.003664727796004e-06,0.00038917283254577393,0.0006710220237855924
8.108222835366677e-05,0.00041487927497821126,0.000692269410371685
8.273414126819323e-05,0.0003769716231517624,0.0006231041388131275
7.814015455518859e-05,0.00035325666524584483,0.000581421723390303
-6.742582520516316e-06,0.00024621833274903165,0.00046357558694218136
-8.75314484623148e-05,0.00015912838019182867,0.00037778120834818077
-0.00011242289262120784,0.00010872457224484816,0.000320999870566488
-0.0003152555388074893,-7.13187523394916e-05,0.00010744365319908004
-0.0003965593072724544,-0.0001591648194472337,1.3724132624124026e-06
-0.0003589702348791245,-0.00014029166159640168,1.9742022851574428e-05
-0.00033262069239891137,-0.00011665882404160248,5.003571865638223e-05
-0.00019770197261426422,3.9972674994116376e-05,0.00020869831010474592
-0.0004038482145729022,-3.910460215176222e-05,0.0001086881329901514
-0.00045630701169027015,1.251345156214939e-06,0.0001385446897553168
-0.0003984162570115084,0.0001685116204969372,0.0002693077501027676
-0.0004675945991721401,0.0002130645514702299,0.0002658911738256361
-0.000570330194947337,0.00021853123194645106,0.00022301920154988662
-0.0008430174219407851,2.4578673882094e-05,-2.5517116734875777e-05
-0.000913084433045576,-6.179094324892896e-05,-0.00014017745885605603
-0.0009396940673129724,-0.00013479435102180378,-0.0002312997582964355
-0.0010790083383000967,-0.0003547807767121232,-0.00039809648934080693
-0.001015117384916113,-0.00038985527642640655,-0.00039052398957321085
-0.0007550959678225589,-0.00025566600188232187,-0.0001909601822493032
-0.0005414038954063015,-0.00015374527235615998,-2.6155991941691587e-05
-0.00018945046164789908,8.95057695724345e-05,0.0002754818274290205
-2.4122655083349088e-05,0.0001817118728108546,0.000390798868305879
0.00013610616421850862,0.0002938437794932342,0.0004967302924052973
0.00017149739499799105,0.0002986430670833264,0.0004808308946615602
0.00011047788134878958,0.00022538669694309655,0.0003681578122259397
0.00011827218527953569,0.0002159437807558864,0.00032257269973398216
3.44024859094167e-05,8.570961771728226e-05,0.0001662092140636631
7.17652652453682e-05,6.548899957202039e-05,0.0001555841344944997
3.604027200950421e-05,-3.987946443547797e-05,7.952854299783523e-05
-6.764578101172511e-05,-0.0002002199779765907,-1.1774500431551613e-05
-0.00016373794600728995,-0.0003805685473387071,-0.00010981167670024296
-0.00021472398988307053,-0.0005464705362300394,-0.00015012775207024333
-0.00016368368320302245,-0.0005627731422555634,-7.179602737179553e-05
-9.291204780043414e-05,-0.0005354394758254386,4.386995898541531e-05
-0.0001272437676188126,-0.0005978417007876008,5.4112162319912035e-05
-0.00019010834864115975,-0.000677904950251311,3.1080308434171962e-06
-8.178289186377249e-05,-0.0006266523452995647,7.999882063623674e-05
-3.876278609265472e-05,-0.0006292189363357645,3.319880224417746e-05
-0.0002230924761391825,-0.0008459596277658974,-0.00019954334324944517
-0.00040305090782087805,-0.0011058851937737965,-0.00044012098487600715
-0.00047001886587,-0.0012646914298225919,-0.0005991803153187917
-0.00045455502285054523,-0.0014828852025768214,-0.0007796611750219681
-0.0008654526490385169,-0.0020284885901481124,-0.001299340144760146
-0.0010398744263120496,-0.002251645627142111,-0.0014595639470619472
-0.0010911155449756652,-0.0023850513256679995,-0.0015378616089794465
-0.001192256923324591,-0.0025567080763948054,-0.0016876752705086743
-0.0013596673125538194,-0.0026967083559738926,-0.0019518522150127906
-0.0014271083207921605,-0.0026558587623748916,-0.002015614838845531
-0.001332345528489603,-0.0025625498435541106,-0.002061018679243361
-0.0014764160464974144,-0.002740506756712006,-0.002444480714707381
-0.0013542570073044704,-0.002663299235853988,-0.0025891432385887125
-0.001189171997082653,-0.0025111611194995383,-0.002686998878711425
-0.0010250658297595472,-0.0023804453245638694,-0.0026643401311092574
-0.0007424376834209789,-0.002110688817108819,-0.0025097034172567043
-0.0004722714983939431,-0.0016754007865253668,-0.0021739443279685587
-6.720983020895682e-05,-0.0010918947641276832,-0.001662461550182947
7.479896528783302e-05,-0.0007142698749042308,-0.001396582258723219
0.00027974284384403174,-0.00022336075355714233,-0.0010233150291566965
0.0006634087278957054,0.0003785992432286439,-0.000502681905436646
0.0008129063184929048,0.0007675243944582629,-0.00027274571463938393
0.00116204508381905,0.0012700086565413532,9.984672857074615e-05
0.0013139879332936916,0.0015475030927031101,0.0002580463038271708
0.0014327046510838415,0.0017596071529293192,0.00039511414752728256
0.0014071157120476875,0.0017448855617006492,0.00036258656693170826
0.0013289601104166766,0.0016660376142155267,0.00023416340848317658
0.00120879955314203,0.0015265126292727724,0.00012090941038013962
0.0009821863319847753,0.0011893159057363531,-9.44699579972257e-05
0.0006726825184079647,0.0008561549617670985,-0.00027435590724659713
0.00026682922060064024,0.000427819303477603,-0.0005405242042505991
-5.999406547187898e-05,5.39489778279154e-05,-0.0007717526683530011
-0.000387072426331525,-0.00032892395633861996,-0.000978459229877959
-0.0006170742341938429,-0.0006278252668419179,-0.001079951534100375
-0.0009667708105866339,-0.0009705492709195578,-0.0012781822719968518
-0.0010655745314823385,-0.0011170025993704757,-0.001300061008291446
-0.001022350577122859,-0.0010807815833726725,-0.001178512062574153
-0.0011053511474389674,-0.0010926663257540448,-0.0011138467750122817
-0.0013926402178191044,-0.0012392922125624853,-0.0011755258919953213
-0.0018222070212429125,-0.001483513515680529,-0.0013493275417945068
-0.0021484144046827526,-0.0016444717802229492,-0.0014816271240799723
-0.002396982013197646,-0.0017718294865281309,-0.0015782167641283271
-0.002357225597262919,-0.0017012830879719726,-0.0014159274105523222
-0.002140185338186112,-0.001535077174566372,-0.0011454373650416753
-0.0017615565210693316,-0.001281157880473283,-0.0007933599585989154
-0.0011940738690997426,-0.0008560845917566708,-0.000319853222256334
-0.0006230991218144874,-0.0004226049252383992,0.00013676946428747873
-4.8246498402864056e-05,-8.610094362678655e-06,0.0005872382735290658
0.00032244199370899044,0.00025008445853683386,0.0008461030083137692
0.000690098502119666,0.0005053895005483857,0.0011009522955798443
0.0009852282176573083,0.0007564667967696112,0.0013224995360458238
0.0012054096461755837,0.0009292296637354232,0.0015061354279509306
0.0014215505421791973,0.0011682148042777086,0.0017392949085400706
0.0015593532441962891,0.0014209164199184617,0.0019403470482080222
0.001597329417665954,0.0015574664565165385,0.002052500607202447
0.001539788664676368,0.0017005692218338667,0.002145935215048871
0.0015173657160230305,0.0018389602329907636,0.0022237516411456664
0.0014749056657649645,0.0019392437045212497,0.002249607141257078
0.0013350564242594052,0.0018990154266327619,0.0021871826038539497
0.0010561675264454133,0.001611445140259933,0.001911977767578077
0.0009006942940331969,0.001447403797844203,0.0017300572932313644
0.0007663711448326922,0.0012696554862214574,0.0015549003935868752
0.0006555971285212167,0.0012036259710258253,0.0014299546755337427
0.0006015864944166456,0.0012182952798447818,0.001364297870548863
0.0005622491299194308,0.0012090183207018024,0.0012666930803723177
0.0006663001036005384,0.0013233034441132645,0.0012973167098689082
0.0006412448148193111,0.0013299917638302213,0.001256441767224147
0.0005164195047420384,0.0012107268728929282,0.0010697280784983468
0.00044158885314488035,0.0010297183041177793,0.0009033639976008058
0.0001935331105476513,0.0007010789964558394,0.0005820863437241979
1.153685311267672e-05,0.00045334553002756943,0.0003202614475395938
0.00012798852790785515,0.0004955194793195215,0.0003790656921045713
0.0003237882657665462,0.0006158655335285471,0.0004953485052773589
0.0007643050654540766,0.0009853202399797809,0.0008471817951124616
0.0010771913925263618,0.0012590780681425615,0.0011315761891311196
0.0015885812238058956,0.0016669786975960332,0.0015763470078411753
0.002088777338293952,0.002114060240394649,0.002071963262428541
0.0019807728374227236,0.002055651678615269,0.0019754966708816464
0.0017604113250486114,0.0018744379409875419,0.001728484992167574
0.0014046495930165885,0.0015641038140872907,0.0013998194112748515
0.0012213893159018108,0.0014081246569396559,0.0011643494706482947
0.000924815496827112,0.0011453523401123969,0.0008293219390204836
0.0007560523662522538,0.0009948125339992527,0.0006242588407267157
0.0007945010618060177,0.001002874191162228,0.0006285264584550188
0.0011073802594577663,0.0012644540465584018,0.0009119554762576502
0.0012202053041519374,0.0013020113006157726,0.0009509184142028266
0.0014183461321464219,0.0013670111427917053,0.0010842456891127289
0.0016628887872498185,0.0014104905680182142,0.0012225486387355533
0.0017460576910831977,0.0012586347238674048,0.0011352166819932976
0.0020038320207565684,0.0013116898837273036,0.001233228905293298
0.0016827167592149855,0.0009163535359590933,0.0009256945278517685
0.001478400401604814,0.000649135233887564,0.0007099473342377814
0.0011796055042895713,0.0003240611641032437,0.0003982860790916367
0.000814313454668728,5.9769752808346554e-05,0.00011173463958213045
0.0004031702595850814,-0.0001914033944985339,-0.00017328595511904686
-0.00013494789759429797,-0.0005731045953602984,-0.0005545671803589857
-0.0003179203574023841,-0.0006923916667147565,-0.0007518019119396425
-0.000502041577940396,-0.0007583846106269329,-0.0009113680913021595
-0.0006932673970813508,-0.000791978303496903,-0.0010279223505236272
-0.0008253730327512255,-0.0007810180091833403,-0.0010514491709702736
-0.0008192549345712344,-0.0006597397173556307,-0.0009658328958382638
-0.0008541752275812694,-0.0005925878466874896,-0.0009388674507246632
-0.0008930087797642541,-0.0005626135224734808,-0.0008975995978465387
-0.0008248119210272256,-0.00040235737373130886,-0.0007062396399958958
-0.0008322129186461226,-0.0003081500160209406,-0.000598071294501625
-0.0007134527642073735,-4.539473058486426e-05,-0.0003704772500503963
-0.0005296588368369607,0.00024974911176580056,-9.535506223076234e-05
-0.000347006804830622,0.0005333164931162471,0.00015487515332769154
-0.0001484112783001928,0.0008260750165234229,0.000412078073228639
-9.457769144737245e-05,0.000924450180089456,0.0004958983947650799
-2.924131426424037e-05,0.0010603571166383405,0.0005676446482247115
-0.00010087336498494278,0.001016732330468698,0.00046395463441579034
-0.00025989401172520825,0.0008892494632429927,0.0002780291426276319
-0.00045053112564858057,0.0007615597108241317,0.00010075480537771121
-0.0006319430347335669,0.0006660669451758919,-5.198653908582877e-05
-0.0006367287236164649,0.0007359672070780636,-3.716487193054401e-05
-0.0008834523209691605,0.0005498657242483943,-0.0002054810935210396
-0.001111864664351288,0.0003634663901133366,-0.0003743994870118025
-0.0013236588588802743,0.00017440382169803598,-0.0005192682359559522
-0.0014544825192941409,3.105218682838694e-05,-0.0005966978250289726
-0.0014367680241460052,2.216153660335422e-05,-0.000552069507045904
-0.0014609588047933763,-4.2411332557558685e-05,-0.0005501308330342176
-0.0012197972108960202,0.00017272510744831523,-0.00028431887498083153
-0.0009525548800408223,0.00041499334568979813,1.7592502861873354e-06
-0.0006110760158831749,0.0007652143304993322,0.0003750068079366358
-0.00031613628617414006,0.0010608829773431014,0.0006926745990494424
-0.00011511464457793102,0.0012292077806428593,0.0009129265296047794
5.786778210533335e-05,0.0014140155378779547,0.0011381232407199767
0.0001888255812274716,0.0015036773625225573,0.0012541822693343519
0.00033149596045265394,0.0015990843110845472,0.0013943896981598635
0.0002946838627628116,0.0015050360450511414,0.001371438644354651
0.0002459714435905567,0.0014054133650913678,0.0013074198895245439
0.00014995928652563017,0.0012976937769493796,0.001218939964208626
2.953480870132629e-05,0.0011304398388708055,0.0010780230261140192
-4.825732455782414e-05,0.0010076025806367726,0.000982108832553811
-7.875566110938187e-05,0.0008885882755937944,0.0008742846795909798
-2.0913492103785186e-05,0.0008652057598800419,0.000854630982326746
0.000146638165253543,0.0008843590775147421,0.0009352173199436911
0.0004234438202718107,0.0009606344927792943,0.0010880270540252293
0.0006877162197816795,0.0010347331906362157,0.0012339679884519465
0.000980430382355942,0.0011667441634573097,0.0014538516976921759
0.001168579196832467,0.0012641633246721336,0.0016203516336406906
0.0013383096840193225,0.0012784109415279784,0.0016833037480912822
0.0013962858597065565,0.00126932924926339,0.0016764123719429352
0.0013135696740131516,0.0011646279140887523,0.0015706664447771878
0.001322360116286352,0.001141098717169774,0.0015898271558842762
0.0012194787634895352,0.0009900921981288505,0.0014711862211823881
0.0011792779470701205,0.0008434837387893701,0.0013903475813305504
0.0011039813747028633,0.0007513102460438808,0.0013724300297510252
0.0010419542364252018,0.000707136626596049,0.00140792358090282
0.0009957352657250684,0.000682623833832279,0.0014742391970638579
0.0008356524674988072,0.0005579049369430611,0.0013772213957643172
0.000728546537542384,0.0004959927935613007,0.0013429113282558587
0.0005293089671737108,0.00039303578970214793,0.0012449399010781492
0.0003456163039667871,0.0002633935005118463,0.001114776240077315
0.00026526484111577455,0.0001985803435071667,0.001045936545345779
8.907575995332863e-05,7.600304503368288e-05,0.0008802424978585508
1.341796366203328e-05,3.670159168604491e-05,0.0008377017795380922
-7.696710098690957e-05,-3.0087998847817878e-05,0.0007748628116168982
-0.0008274470337066414,-0.0012753866153517477,-0.0005606662667539485
-0.0014429244099493216,-0.00231923371266558,-0.0016894532685259136
-0.0021328626321558595,-0.0034064296612075643,-0.0028724690118325925
-0.002606955697242983,-0.004324140427405807,-0.003919887816312828
-0.002972899956726693,-0.005063110704427959,-0.004816133220524302
-0.003370979018599248,-0.0057820141739306115,-0.005698945213996504
-0.003024575969983545,-0.005246304836372561,-0.005228200335569221
-0.002817390549111632,-0.004891521155081569,-0.004953107325559238
-0.002548734876844388,-0.004564112068370336,-0.004632655496111844
-0.002377099118297165,-0.0043159279962218635,-0.004364286452915834
-0.002206290768495932,-0.004084325633671127,-0.004115736403896535
-0.0019291407889202989,-0.0038223007176592188,-0.0038468341065247933
-0.001741861499575562,-0.0036300439052364734,-0.003651841973468675
-0.0013757779523590147,-0.00328199897770494,-0.0032877031734719854
-0.000972028229395951,-0.002832942057585965,-0.0028891812954308107
-0.0004924196341068808,-0.0023411166738004263,-0.002415562072690586
-0.0002036310091492539,-0.002084465887837147,-0.0021578805574973673
8.640816880690798e-05,-0.001817817807303292,-0.0018632522777994986
0.0007093775087800096,-0.0012509007559505143,-0.001285487682583362
0.001198672344705559,-0.0007593472142921419,-0.0007973849120111201
0.0018088726302214315,-0.00017543164634981501,-0.00023095120889881856
0.0023768456278246905,0.0003650142663114316,0.00027937805521149585
0.003102562577964823,0.0009979952917206917,0.0008585703827052606
0.0037180820705925944,0.0015804705848891445,0.0013566316321175088
0.004236965713971886,0.0021133153480789725,0.0018219280496973348
0.004438033696794854,0.0024351694287280605,0.0021286216837368248
0.004480567549748044,0.0026163327323125776,0.0023247476585521666
0.004473021983342985,0.002824798544123723,0.0024766685916629114
0.004062759271574137,0.0027922658145035826,0.002358255534333762
0.003786678440876986,0.002802183761274566,0.002289755015135733
0.003176018307799894,0.002493347340583176,0.001956193371383658
0.0028799480369882825,0.0023216571872057604,0.0017552603194266412
0.0025256261836516477,0.00206441215092043,0.0014862002506407367
0.002150396251290478,0.0017289278083376107,0.0012854618054310655
0.002013523674470174,0.0015514578081293965,0.0012747979101348735
0.0016735491178375128,0.0011826405245955443,0.0010908029067269167
0.001532571051570662,0.000934217352838763,0.0009822934053038761
0.0015041530532380848,0.0007738773674034784,0.0009186702012327322
0.0014427546241426168,0.0006258929300916714,0.0008458761871512709
0.001441650092218262,0.0005324506647202989,0.0007603272454270193
0.0012285568910442093,0.0002156159594838755,0.00044042451331178964
0.0010025029332409096,-2.4836653248089042e-05,0.0001783717397544473
0.0007791097012181788,-0.0002482886369686074,-6.61136159405961e-05
0.0003917555307881339,-0.0006060925516215036,-0.00043766674821223297
1.0734265309452516e-05,-0.000988327270712269,-0.0008377173586398407
-0.0004032484191477996,-0.0013787334928387612,-0.0012511966268620568
-0.0006922550195061025,-0.0016399830184625418,-0.0015280516597104615
-0.0009537460212091074,-0.0018299185446914942,-0.0017491737755293408
-0.0013599767821739724,-0.0020412815413637926,-0.0020126449074987854
-0.0017520565695249115,-0.0022075242901039922,-0.002247071576399157
-0.002142850024754373,-0.0023410237272943482,-0.00246761449289403
-0.002423231875831146,-0.0023476613489169518,-0.002569161059920006
-0.0024929590512706755,-0.0021662277875206287,-0.0024448443151030433
-0.0023715579749954826,-0.0018911848154732449,-0.0022188740619683467
-0.002110916694480141,-0.001558721366383376,-0.001914254956988684
-0.0017562176420406503,-0.0011227431023670003,-0.0014981828245009018
-0.0013822938457436669,-0.0006935784510161557,-0.0010774366973687686
-0.0011102894587114618,-0.00037207199558249527,-0.000769474686781173
-0.0009832215501082344,-0.00018513082556173433,-0.0005756064935150484
-0.0009713970117140834,-0.00011161779631760124,-0.000491191789628506
-0.0011055093149330323,-0.00012611217030528686,-0.0005194425106554689
-0.0012343836072061783,-0.00021741296928755956,-0.0006103531719566125
-0.0011557631410167245,-0.00014749686423037118,-0.0005246447424762044
-0.0010562635095562858,-6.354253601087624e-05,-0.00048248848470718904
-0.0010985822916869602,-4.425732411501849e-05,-0.0005423936964873155
-0.0010193141045281601,0.00010947989463841553,-0.00043910781514449536
-0.0008110248118636458,0.00029843182502328465,-0.00024311677119368864
-0.0007447921082121147,0.000422237496079555,-0.0001262777312703235
-0.0008156999947434546,0.00046739061855785254,-0.00010660937908794735
-0.0008001392444295215,0.0005278904767378075,3.4625610335366754e-05
-0.0003859894146918726,0.0009244666833748102,0.0004742046273018695
-7.616913410313128e-05,0.0012137423533080446,0.0007662585264105396
5.208225814414132e-05,0.0013613322960718366,0.0008668246662224434
0.00022743772532579217,0.0015391334182094157,0.0009702376888796328
0.0002878687978099712,0.0016379028122701954,0.0009950892610984243
0.00021116258076721666,0.0016699178668156433,0.0009317808076972172
-6.987095206659506e-05,0.0014513050426246104,0.0006759756501058588
-0.0003656806029866124,0.001219573690390876,0.0004641784189727863
-0.0005800412565251646,0.001026599975224522,0.0002765260233388113
-0.0007546939477762298,0.0008884615303572027,0.00017156618069447517
-0.0008711472068874764,0.0007612140660025502,8.583966361193628e-05
-0.0009581113383916937,0.0006585159656937065,8.548174034171096e-06
-0.0009824580420853069,0.0006224030792245359,-1.2416148190601567e-05
-0.0009133286816777426,0.0006883591878035295,1.3501536302585732e-05
-0.000816245791417558,0.0007595789204273544,7.434281446387048e-05
-0.0007713670195661003,0.0008013783111406339,0.00011018570717308718
-0.0007547162602186123,0.0007799417308843222,0.00011920508302926565
-0.0007188905309257956,0.0006997343087136437,0.0001085872649065647
-0.000817350059290061,0.0005304607645098473,-3.02828696463065e-06
-0.0009087249250193097,0.0003474868524130353,-9.049055365339195e-05
-0.0010927764356779399,0.00010258125704431438,-0.00023385855978388584
-0.0012054133429114234,-0.0001196785292969707,-0.00034936796296380836
-0.0012940198814372988,-0.000310057663854348,-0.00040216474737710144
-0.0013538914265135463,-0.00041923865097642695,-0.0004197523652634276
-0.0013430364891770905,-0.00047149690016278737,-0.00038522537856453345
-0.0012044607732449109,-0.000434103094649265,-0.0002887708014087644
-0.00080931652372508,-0.00023440501658903505,-2.2704296671955124e-05
-0.000519697057338184,-0.00015159641249538002,0.00013853227928428845
-0.00014156663945779916,-1.0458726446446731e-05,0.0003109793393699238
0.000312919069591142,0.0001913475473781981,0.0005679656041308706
0.0009611607495625409,0.0005810219477910879,0.0009810057529195985
0.0014864413306414752,0.0009207278309287196,0.001339690546964363
0.0018572345195993908,0.0012293749259232561,0.0016043600815471386
0.0022329810708257205,0.0014848546387135188,0.0018611888389486078
0.0024028118979910426,0.001604934527926481,0.0019497722728722957
0.002412538538671327,0.0015900394541552663,0.0018773798827608024
0.0020697474652391972,0.001283300139020063,0.0015720417626184683
0.0016415434371582992,0.0008673744236849468,0.001160330194365776
0.0012698045439004314,0.00047826945265134276,0.0008191761148767619
0.0009636118175970116,0.00022364975910070824,0.0005776486761359215
0.000695878216924538,4.3921185185596914e-05,0.0004130853017786131
0.00048371144421143316,-8.35398977028457e-05,0.0003145068177293385
0.0003354560889574828,-0.00020856760407904603,0.0002063118029243829
0.00025456358237915523,-0.00028209924902972166,0.00016963899296879468
9.764056929948809e-05,-0.000420991035895346,9.850336109135045e-05
1.6338253123957173e-06,-0.0004914314173419352,5.687415226184521e-05
-2.992785096061539e-05,-0.0005419896960450157,5.6212436508235106e-05
-9.593162102916824e-05,-0.000606075124151127,4.2295149424075375e-05
-4.6575441677383334e-05,-0.0005545187267117465,0.00013151283763654985
-7.122963459517912e-05,-0.0005611723235152927,0.00015255228281924667
-0.00010738490150200075,-0.0005695346045365986,0.0001300091902440258
-0.00015931704575692786,-0.0006059477187834895,9.268720703107345e-05
-0.000342467212948519,-0.0007762937125245382,-8.180612849117741e-05
-0.00041597047224722374,-0.0008718940795977072,-0.0002067729707476937
-0.0004104866283538942,-0.0009045286014857482,-0.0002453910560282602
-0.0002826163959992941,-0.0008259848425688706,-0.0002067195001011062
-0.00019489139699774947,-0.000831753203112246,-0.00020212353299496394
-0.00013479870788939792,-0.000839189187697822,-0.0001703768878919854
0.0001744135916434643,-0.0006021866859209423,9.70558248710139e-05
0.00033487345694878037,-0.00045812831433159914,0.00026753410895170605
0.00034160719370889074,-0.0003972966740905251,0.0002610831725003556
0.0002089049312446335,-0.00039968384140122583,0.00022564243186339397
0.0002756286406615887,-0.0001761963426089083,0.0003872119781183391
0.0003248382708340736,-1.6392647954858796e-05,0.0004607714806158655
0.00029604280934466393,4.817058328725991e-05,0.0004702508360570642
0.0002490252116289982,0.00011687996807370664,0.00047788446399619605
0.00023414822545920588,0.00015002912843164605,0.0005372400503390369
9.532509226272327e-05,1.473862261985232e-05,0.0004817747505943008
-0.00016352710002502587,-0.0002288592523671979,0.00028785467099694874
-0.0006395412796268255,-0.0005509112404216934,-2.0186687389531014e-05
-0.0013388770009781282,-0.0010879511389082087,-0.0005844889581100127
-0.001833196757419394,-0.0015079420756741171,-0.0009864021954091933
-0.002357454398819264,-0.0019505499077082458,-0.0014339818733930614
-0.0027777892640647593,-0.002320212951642778,-0.0018589566704984187
-0.003162882484314867,-0.002682927452045827,-0.002238482474216061
-0.0033415174844872173,-0.0029618679721384864,-0.0025248544899986515
-0.003263729312015051,-0.002944569095743874,-0.002512845774934338
-0.003151231956567673,-0.0028689976446453656,-0.002467251288575438
-0.0029067287773251837,-0.0026836250789511384,-0.0022883131560464992
-0.002468930134851793,-0.0023169607480931003,-0.0019166595517697614
-0.002161370276337869,-0.002081963725629837,-0.00170019400312344
-0.001699747358192346,-0.0016831336982320172,-0.0013202306642905027
-0.0012289896732155493,-0.0013164689712954931,-0.0009341405135388446
-0.0006671705529159327,-0.0009245484076474427,-0.0005098629472596047
2.387074892623409e-05,-0.00037419062142409257,2.995597256002621e-05
0.0008209057912748125,0.00027976528831234016,0.0006401330214484938
0.0017577976006272642,0.001116471325588589,0.0014001704691742672
0.002608414719750742,0.0018298298230263758,0.0020619098566864863
0.0033460441377924643,0.0024965319466725353,0.002611631540253838
0.0038266694675250846,0.002979964947443511,0.0029621097122716875
0.003869886820569856,0.0030412403280382274,0.0029210534975327982
0.003571507938088747,0.0028286245339202796,0.002608125450153908
0.0031531888502067075,0.002483584128621561,0.002152862898426697
0.002585937640319063,0.0020914487582028465,0.0016231660380189713
0.0019969846093633573,0.0016487621064742452,0.0010785565443430201
0.0013502651924903167,0.0011274745284449224,0.0004762503746305321
0.000909697562682507,0.0007681202290949654,3.9352283467917195e-05
0.0004985873741702772,0.0004046927867367079,-0.00035320411878215504
0.0001818783579602054,0.0001472569724650904,-0.0005912756374137154
-7.9190687727836e-06,-8.399974526335653e-05,-0.0007784919502182879
-0.0001283917361917667,-0.0002765645750161128,-0.0009250791533249176
-6.804529255767188e-05,-0.0002850048835727948,-0.000898417764750803
6.180084522028317e-05,-0.00022075627097539516,-0.0008026105124851864
0.00034888012582910433,-5.524890865871192e-05,-0.0005830838023301602
0.000746778707765212,0.00018627905818724845,-0.0002970130705334048
0.001293736024918299,0.0005991319936988949,0.00018422908601550106
0.001979139144136962,0.0011705331858926336,0.0008077286435609577
0.0026360574597204096,0.0017463503933633118,0.0014664071336134901
0.0031675498776438014,0.002232736558140994,0.002029064092736987
0.0035856813561702737,0.0026406305862797575,0.0024936021513191596
0.00338828396820274,0.002671884377249392,0.002497953209662089
0.0028427176800186085,0.0024187588251984135,0.0021808689747408825
0.0020593670303813943,0.001969463333577665,0.0016892120564999573
0.0011721000738771734,0.0013870495646599423,0.0010605101351071312
0.0002543296317968286,0.0008023295605443465,0.0004368096335500565
-0.0005705154278291562,0.0003259389739959544,-0.0001301503263461999
-0.0009205734921978372,0.00012066595390423644,-0.0003682704306502171
-0.001146253023447682,-8.522032830022657e-06,-0.0004925923244917458
-0.00130477738337274,-0.00013835351569054349,-0.0005984004360378524
-0.0013863450723873624,-0.00018005665924039047,-0.0006357068401490564
-0.0014417069955488377,-0.00021263903074464406,-0.0006788258336084985
-0.0014821397821560248,-0.00029534491838679235,-0.000723335063880632
-0.0015648010449134078,-0.00048592869368950303,-0.000812823273956764
-0.0016831623479365478,-0.0006796333063851451,-0.0009439601007252073
-0.0017447081183689962,-0.0007711353134308877,-0.001003810653621872
-0.0018942993156040278,-0.0009637986347941907,-0.0011473675893700253
-0.0019463233501547934,-0.0011279367524791816,-0.001291719983503699
-0.002024349037918493,-0.001240246102492506,-0.0013933524996432667
-0.002042980719688684,-0.0012331840163545566,-0.00142957457185131
-0.0020447085477181067,-0.0012386386824382353,-0.0014695865906804082
-0.002074779647201376,-0.0012962352825474487,-0.001517468828555148
-0.0019297149712456647,-0.0012016964068292295,-0.0014069560922648967
-0.0019322143609014487,-0.0012349757451070407,-0.0013803987404079222
-0.002004225459095052,-0.001411988142201858,-0.0014943972347474415
-0.002014874963527078,-0.0015475897019477484,-0.0015259779228061893
-0.002015201068458511,-0.00167895044530053,-0.0015416132679743429
-0.002093080867173248,-0.0018742656466825792,-0.0016561289092841434
-0.002334754194962343,-0.0021685847208114386,-0.0019050293560725204
-0.0024773491871770406,-0.0023338964201705366,-0.0020198436408439724
-0.002566567271468001,-0.002406935343013794,-0.0020638136757574195
-0.002728930823817616,-0.002513363978113442,-0.002174251949220084
-0.002768124543713691,-0.0025191285098943436,-0.0021956618601650024
-0.0026310798046150583,-0.002396096512884915,-0.00206541343828745
-0.0023356456364580277,-0.002169725163886787,-0.0018150720565934446
-0.0018620573078687395,-0.0017765400524531049,-0.0013957034917511223
-0.0011796795710372556,-0.0012212430307750708,-0.0007877637603359932
-0.00041063528995438246,-0.0006208338147669559,-0.000142425470459845
0.0002592911796953115,-9.152735609291926e-05,0.00043353590971709335
0.0007872907101460658,0.00032328550966255617,0.0009048685691769358
0.0010989796908131354,0.0005532330547198983,0.0011765589976961757
0.0012948763359663048,0.0006683627502958741,0.0013189060445435755
0.0012584056582577924,0.0006266724132962496,0.0012559205274423732
0.0011545244703833897,0.0005106510121720288,0.0011428039687028373
0.0011493959092304358,0.0004968621866671631,0.0011155326186811224
0.0012282890097054435,0.0005497058404130436,0.0011227771651493653
0.001408659759484725,0.0006806047558121766,0.0012261697237335087
0.0016192457814528276,0.0008492507790699456,0.0013631822484169883
0.0018009068241426945,0.001013733881444764,0.001509270920260588
0.0020024704336505327,0.0012060458808567994,0.0016943629300945854
0.0021812205607454186,0.0013802066421595427,0.0018875080153822961
0.0023282227224752337,0.0015463601411287958,0.0020874408361825324
0.0025496136438157764,0.0017726681175089824,0.0023988361903844652
0.0026394881628105634,0.001861215904336362,0.002574074682274953
0.0027489800718415213,0.001925757747319704,0.0027288667910679203
0.0028804853839797567,0.0020056327272975094,0.0028841980952209914
0.00291847819276141,0.001970706361077886,0.0029286415764007267
0.0031257630294274767,0.002122674031494584,0.003109651465440092
0.0029216474838015807,0.001942554791793932,0.0028821227740013586
0.0027878668306178253,0.0018119051420270222,0.002673791893057582
0.0027274983385939078,0.001734732080031271,0.0024986332770710984
0.0024946302400220824,0.0015958219415109559,0.0021583106991423994
0.0021915947903669987,0.0013956372145536042,0.0017420146500709871
0.0018654551364134027,0.001146318508486812,0.001346354441817041
0.0018205562965666767,0.0011122074045947093,0.0011793732700506553
0.0015650017248710496,0.0010083234441687807,0.0008837415905652865
0.0011653093017605614,0.0007813235180129687,0.0004959519974383016
0.0008391975053538163,0.0005504743654353193,0.00022727797351778381
0.0006190610978002084,0.0004564622746054667,7.687864337364295e-05
0.00027010400064526,0.0002461818934936266,-0.0002142916037902164
5.7492695420832625e-05,0.0001302832768183057,-0.00039177361839026466
-7.152642969032742e-05,1.1206787392843429e-05,-0.0004876883400541763
-5.165304068200721e-05,0.00012389980579993114,-0.00034904859137159283
0.0001230842794191421,0.0003749083163246726,-7.780322346879524e-05
0.00016405731759667254,0.0004854126029301706,3.470588231927331e-05
0.00019352967786437128,0.0005540662726229156,9.763977714251633e-05
7.794858441122114e-05,0.0005388489226827418,6.175965301879812e-05
-6.175423994096395e-05,0.0005680379545372689,4.812054532324419e-05
-0.0003487218263098219,0.00037037664601936957,-0.00021238118340457488
-0.0008007997719469657,-5.579430925716231e-07,-0.0006639172931560154
-0.0012762532359046677,-0.00031857019079079403,-0.0010342061416952892
-0.0018127971116278273,-0.0006934575149358842,-0.0014590293726227063
-0.0022282676003225867,-0.0009711585722375286,-0.0017626176163443791
-0.002640037524195289,-0.0012950036093080165,-0.002042047029780566
-0.0028399331135817323,-0.0014118021171616508,-0.00211457897168029
-0.0030255589056965826,-0.0015069904301905023,-0.002146893065768
-0.003044745493954551,-0.001528885669771159,-0.002089466383490001
-0.0028867825098060533,-0.0013781239274682304,-0.0018605458709246329
-0.0027146144212659954,-0.0012282797678658437,-0.0015939429433827876
-0.002325668013804234,-0.0009261846094328783,-0.0011974580989365033
-0.0020355873795940274,-0.0007571063321081812,-0.0009051565185109699
-0.0015791227285162288,-0.0004653865915336703,-0.000508828389268608
-0.0010648449542158501,-0.00014918864908358267,-7.2076979311219e-05
-0.0007417630290890957,2.8423543437045444e-05,0.00020843570981647202
-0.00048452182156623975,0.00021038705835245506,0.0004158552132973463
-0.00015581795305019222,0.0004706725280208841,0.0006504793935253479
-5.691653274340727e-07,0.0006732166967687198,0.0008048453214595587
5.546556379517131e-06,0.0007651568990636365,0.0008407173919798428
-0.00014478662859303138,0.0007673489315211638,0.0007481286765586078
-0.00033451870231352457,0.0007030291567535318,0.0006164611041133979
-0.0006309162662934442,0.0005123503225235545,0.0003551397561897556
-0.001138748121140404,0.00012486359770130608,-6.815513842971515e-05
-0.0014935972874698172,-0.00017547917581274008,-0.0004116508361596425
-0.0017885632904103429,-0.0004339236709244741,-0.0006923550954320093
-0.001706113401741052,-0.0003909097703881623,-0.0007027208753716692
-0.001326112567440345,-7.229957563204905e-05,-0.00038504833131136607
-0.0008198803430967818,0.0003346566697842704,5.3990302056742814e-05
-0.00016711755492318815,0.000874177606272587,0.0006085261921855977
0.000272860841561919,0.0011664544977812814,0.0009463106967559936
0.0006550229461951427,0.0014114319154512804,0.0012331473130458832
0.0007158523419898108,0.001358270078350767,0.0012747553976691721
0.0005523569282741099,0.001086805150730517,0.001017923999742103
0.00041431961554364553,0.0008430982220291034,0.0007612581627821952
2.4626995502699092e-05,0.0003388363580051351,0.0003248225597049829
-0.00014410352457922815,6.941770582079254e-05,7.613520334740042e-05
-4.436967848602765e-05,7.109628804387919e-05,0.00010005519807926197
9.975298990557125e-05,0.00014526628009695883,0.00017230975274593535
0.0003032492002155076,0.00027451473487029136,0.0003218470832566021
0.0005105274355668654,0.0004500663931153556,0.0005199604497827215
0.10437031477322019,0.12386157943607976,0.16716221743621676
0.2082118670360718,0.24725293932633186,0.3338438985284179
0.3115471440340104,0.36973683580274547,0.4996572535514526
0.4149895618168441,0.4923322295354749,0.6655931089016357
0.5183802556608789,0.6148963016157234,0.8314895137407914
0.6215689252556883,0.7372805095310595,0.9971987084723788
0.6214361635813945,0.736788924171066,0.9967702303577243
0.6212597460947535,0.7363111104731601,0.9963314264670955
0.6214561259561205,0.7366477141346113,0.9966537475247249
0.6214969656477474,0.7368116313723168,0.9968033821586085
0.6215512442952167,0.7369942395715959,0.9969643763343006
0.6216542881723738,0.7372230464095268,0.9971819899835458
0.6216625345343141,0.7373236544016727,0.997259855127343
0.6217357180259435,0.7374502134809624,0.9973657032428545
0.6216516502871421,0.7373975864823543,0.9972896561010411
0.6216184390744283,0.7373940811844114,0.9972753497324875
0.6215512442952167,0.7373490351352529,0.9972135257826664
0.6214878756378275,0.7373398857135035,0.9971687292631921
0.6213766329281938,0.7373244148730909,0.9970934782398946
0.6212561813849817,0.7373671082137995,0.997031832525562
0.6211918859030516,0.7374837455175556,0.9970334722920574
0.6210869289649834,0.7375832959791356,0.9970349813525279
0.6209261605542437,0.7376483994619474,0.9970043604955822
0.6208324324519587,0.7377236029557812,0.9969908621279102
0.6206164823339407,0.7377095698816435,0.9969183321664057
0.6203613917026198,0.7375755724412939,0.9967904779092321
0.6200735770355882,0.7374260447487034,0.9966450852799777
0.6198317114775241,0.7373041316744839,0.9965008333578506
0.6196713351848594,0.7372566022108507,0.9964422295291906
0.6195068119464926,0.7371658328176782,0.996356961671434
0.6193623936712428,0.7370254545468372,0.9962130662202839
0.6191083962175862,0.7367811768684951,0.9959652832439975
0.6187726124393828,0.7364943959672975,0.9956530146679266
0.6184362820723474,0.7362031116494206,0.9953494439837004
0.618127043499583,0.7359583824411726,0.9950869981678832
0.6179584921391732,0.735865462339768,0.9949653108586145
0.6179130896190376,0.7359745068117088,0.9950256257479653
0.6183098061696191,0.7362153742510367,0.9953568229329282
0.6190802112456517,0.7365797351192497,0.9959566447639807
0.6200341394631386,0.7370583449356715,0.9967668914129041
0.6210717670660836,0.7376123127166838,0.9976460320193637
0.6218672201694511,0.7379018622091381,0.9983236952294819
0.6228319019280849,0.7380713047469909,0.9990452281345337
0.6235397701123421,0.7382447041126912,0.9996665095184166
0.6238601899914261,0.7382767152064482,1.0
0.0,0.0,0.0
0.0,0.0,0.0
0.0,0.0,0.0
