y,u,v
83.72579193115234,119.7159652709961,143.38583374023438
83.67577362060547,119.72052764892578,143.37574768066406
83.69940948486328,119.72188568115234,143.37979125976562
83.88007354736328,119.72798156738281,143.3747100830078
83.9702377319336,119.7448501586914,143.3665008544922
83.65426635742188,119.75352478027344,143.42501831054688
83.55208587646484,119.73021697998047,143.45535278320312
83.69953918457031,119.73219299316406,143.4599151611328
83.79900360107422,119.72807312011719,143.47769165039062
83.85383605957031,119.7146224975586,143.51548767089844
83.98731231689453,119.72030639648438,143.49200439453125
84.18252563476562,119.7325439453125,143.50648498535156
84.28755950927734,119.74217987060547,143.50991821289062
84.20711517333984,119.7669448852539,143.49940490722656
84.09211730957031,119.76109313964844,143.5309295654297
84.23479461669922,119.7745132446289,143.54486083984375
84.2082748413086,119.8011474609375,143.564453125
84.15331268310547,119.8146743774414,143.5977325439453
84.15750122070312,119.84366607666016,143.62757873535156
84.40055847167969,119.8524169921875,143.60145568847656
84.54243469238281,119.85380554199219,143.61558532714844
84.55719757080078,119.82655334472656,143.6280517578125
84.73945617675781,119.88190460205078,143.67193603515625
84.83642578125,119.94149780273438,143.74351501464844
84.68627166748047,119.96044158935547,143.77554321289062
84.6847152709961,119.98677825927734,143.79478454589844
84.77873992919922,119.99594116210938,143.7908172607422
84.87429809570312,119.97782135009766,143.7816925048828
84.99140167236328,119.97039031982422,143.76695251464844
85.01048278808594,119.97809600830078,143.7441864013672
85.16108703613281,119.98246765136719,143.68115234375
85.29290008544922,119.9947509765625,143.66270446777344
85.37495422363281,120.08222198486328,143.68919372558594
85.43403625488281,120.08804321289062,143.70046997070312
85.44892120361328,120.09290313720703,143.6949462890625
85.36859130859375,120.10889434814453,143.7050323486328
85.38900756835938,120.10672760009766,143.72161865234375
85.38076782226562,120.10647583007812,143.7049560546875
85.24787902832031,120.08696746826172,143.6786346435547
85.35508728027344,120.1014175415039,143.6848602294922
85.38304901123047,120.11637115478516,143.68145751953125
85.40859985351562,120.11886596679688,143.6688995361328
85.41149139404297,120.11778259277344,143.66232299804688
85.39152526855469,120.128173828125,143.6670379638672
85.52751922607422,120.16773223876953,143.6245574951172
85.59362030029297,120.1650390625,143.63540649414062
85.62224578857422,120.16692352294922,143.6436309814453
85.76181030273438,120.16836547851562,143.6302032470703
85.65234375,120.16905975341797,143.646240234375
85.80027770996094,120.2065200805664,143.6619110107422
86.02081298828125,120.24015045166016,143.68692016601562
86.0498046875,120.2320327758789,143.7439422607422
86.24498748779297,120.22952270507812,143.72328186035156
86.24789428710938,120.22676849365234,143.72418212890625
86.17383575439453,120.23362731933594,143.71835327148438
86.12091827392578,120.16815948486328,143.7130584716797
86.16786193847656,120.15239715576172,143.71798706054688
86.2253189086914,120.14939880371094,143.69387817382812
86.21070098876953,120.15997314453125,143.69618225097656
86.35751342773438,120.17340087890625,143.67654418945312
86.33776092529297,120.16940307617188,143.68756103515625
86.4813232421875,120.1631088256836,143.68215942382812
86.35731506347656,120.15342712402344,143.67877197265625
86.51212310791016,120.1578598022461,143.66030883789062
86.53988647460938,120.15933227539062,143.6599884033203
86.5651626586914,120.15946960449219,143.65792846679688
86.46161651611328,120.14789581298828,143.68177795410156
86.44065856933594,120.16439056396484,143.7121124267578
86.5562973022461,120.17373657226562,143.72743225097656
86.64751434326172,120.15965270996094,143.7518768310547
86.74871826171875,120.16202545166016,143.75372314453125
86.87991333007812,120.1731948852539,143.7386474609375
86.91742706298828,120.17520904541016,143.74530029296875
86.91362762451172,120.1888198852539,143.77760314941406
87.05741119384766,120.18989562988281,143.7766876220703
86.85918426513672,120.19995880126953,143.76780700683594
86.90025329589844,120.21553039550781,143.77914428710938
86.80255889892578,120.22560119628906,143.75827026367188
86.75369262695312,120.24762725830078,143.7610626220703
87.04667663574219,120.28208923339844,143.7760467529297
87.01976776123047,120.29429626464844,143.8038787841797
87.15666961669922,120.31358337402344,143.81396484375
87.35295104980469,120.41780853271484,143.81387329101562
87.06607055664062,120.3949203491211,143.881591796875
87.10962677001953,120.39668273925781,143.88851928710938
87.17691040039062,120.39221954345703,143.90660095214844
87.17676544189453,120.38970947265625,143.90823364257812
87.09996032714844,120.34992218017578,143.94200134277344
87.19406127929688,120.35847473144531,143.93360900878906
87.12776947021484,120.34814453125,143.94580078125
87.08740234375,120.33592987060547,143.97865295410156
87.07205200195312,120.33289337158203,143.9863739013672
87.33302307128906,120.33736419677734,143.9686737060547
87.31034088134766,120.33527374267578,143.97476196289062
87.28052520751953,120.32835388183594,143.9888153076172
87.25662994384766,120.32081604003906,144.0065155029297
87.21443176269531,120.31822967529297,144.0357666015625
87.33753204345703,120.32843017578125,144.02618408203125
87.46758270263672,120.33868408203125,144.0132598876953
87.40278625488281,120.33773803710938,144.0263214111328
87.4833755493164,120.34249114990234,144.01235961914062
87.4835205078125,120.34007263183594,144.00843811035156
87.38957977294922,120.34114074707031,144.0125732421875
87.39720153808594,120.34315490722656,143.99746704101562
87.29425048828125,120.34027862548828,144.0042266845703
87.22277069091797,120.3363265991211,144.007080078125
87.1750259399414,120.37032318115234,144.00927734375
87.14832305908203,120.37985229492188,143.99832153320312
87.15839385986328,120.3879165649414,143.99432373046875
86.94303894042969,120.39102935791016,144.00357055664062
86.90956115722656,120.38323211669922,144.01339721679688
86.77310180664062,120.37245178222656,143.99903869628906
86.79899597167969,120.38343048095703,143.95506286621094
86.76542663574219,120.37859344482422,143.950439453125
86.7109146118164,120.37443542480469,143.96133422851562
86.65837860107422,120.3698501586914,143.97393798828125
86.41590118408203,120.37150573730469,143.9696502685547
86.42887878417969,120.37737274169922,143.9642333984375
86.35057830810547,120.37294006347656,143.9716033935547
86.6353988647461,120.39362335205078,143.9237060546875
87.19202423095703,120.42644500732422,143.8517303466797
87.23120880126953,120.40425109863281,143.86526489257812
87.26119232177734,120.43252563476562,143.90228271484375
87.67355346679688,120.45104217529297,143.86497497558594
87.72933959960938,120.46390533447266,143.86268615722656
87.88690948486328,120.48226928710938,143.85475158691406
88.07923889160156,120.48760223388672,143.8593292236328
88.18851470947266,120.48377990722656,143.85879516601562
88.32461547851562,120.4873275756836,143.8535614013672
88.45226287841797,120.4552993774414,143.8699951171875
88.4365463256836,120.44207000732422,143.88385009765625
88.42283630371094,120.40522766113281,143.90130615234375
88.51966094970703,120.34002685546875,143.90272521972656
88.62986755371094,120.27045440673828,143.88796997070312
88.82769775390625,120.19031524658203,143.88169860839844
88.99852752685547,120.1686019897461,143.86338806152344
89.0749740600586,120.14203643798828,143.86839294433594
89.12574768066406,120.13260650634766,143.8544921875
89.04267883300781,120.04328155517578,143.86605834960938
89.18191528320312,120.01325988769531,143.87933349609375
89.1102523803711,120.00365447998047,143.87643432617188
89.03807830810547,119.98808288574219,143.863037109375
89.1312026977539,119.98839569091797,143.86209106445312
89.15751647949219,119.97824096679688,143.86630249023438
89.11295318603516,119.96749114990234,143.8666534423828
89.1130142211914,119.93584442138672,143.87100219726562
89.14649963378906,119.92452239990234,143.8867645263672
89.1311264038086,119.93118286132812,143.880859375
89.15391540527344,119.93011474609375,143.87921142578125
89.28760528564453,119.922607421875,143.88473510742188
89.28064727783203,119.90612030029297,143.89669799804688
89.49320220947266,119.89058685302734,143.8842315673828
89.59159851074219,119.87150573730469,143.87416076660156
89.89690399169922,119.89081573486328,143.84849548339844
90.01985168457031,119.88854217529297,143.83660888671875
90.15238189697266,119.8803482055664,143.8382568359375
90.14775085449219,119.8707275390625,143.84950256347656
90.24966430664062,119.86995697021484,143.8544921875
90.21612548828125,119.86804962158203,143.85801696777344
90.14986419677734,119.85045623779297,143.8760223388672
90.12411499023438,119.84307098388672,143.89608764648438
89.75773620605469,119.82115173339844,143.9260711669922
90.19449615478516,119.8128890991211,143.90481567382812
90.10323333740234,119.8064956665039,143.93089294433594
89.75188446044922,119.78504943847656,143.97146606445312
89.53213500976562,119.76573181152344,143.9881134033203
89.27899932861328,119.74539947509766,144.01206970214844
89.23941802978516,119.73307037353516,144.02279663085938
89.1280288696289,119.73625183105469,144.02951049804688
88.81623840332031,119.72245788574219,144.0463409423828
88.80998992919922,119.7242431640625,144.0462188720703
88.80498504638672,119.71509552001953,144.0628662109375
88.62797546386719,119.68814849853516,144.09915161132812
88.67020416259766,119.68761444091797,144.10296630859375
88.7877426147461,119.68134307861328,144.0977020263672
88.81832885742188,119.67747497558594,144.0998077392578
88.8593521118164,119.67765808105469,144.09437561035156
88.83041381835938,119.66069030761719,144.0792999267578
88.6590347290039,119.65422821044922,144.0906982421875
88.85780334472656,119.6448974609375,144.08209228515625
89.20197296142578,119.62657928466797,144.06417846679688
89.32601928710938,119.63139343261719,144.068603515625
89.37327575683594,119.62989807128906,144.0576171875
89.47932434082031,119.63214874267578,144.04490661621094
89.57035827636719,119.63338470458984,144.030517578125
89.66207122802734,119.6317367553711,144.0218048095703
89.90460205078125,119.64002990722656,144.007080078125
89.81751251220703,119.62379455566406,143.98483276367188
90.11410522460938,119.63639068603516,143.9392852783203
90.17353057861328,119.63175201416016,143.94137573242188
90.15547180175781,119.63797760009766,143.94529724121094
90.09215545654297,119.5990982055664,143.9521026611328
90.2914047241211,119.59387969970703,143.949462890625
90.36299133300781,119.59629821777344,143.9579620361328
90.44337463378906,119.5979995727539,143.95172119140625
90.44666290283203,119.58032989501953,143.95103454589844
90.64225769042969,119.5770034790039,143.9314727783203
91.14768981933594,119.58326721191406,143.85784912109375
91.35685729980469,119.59062194824219,143.8397674560547
91.44219207763672,119.612548828125,143.836669921875
91.47673797607422,119.62841796875,143.83116149902344
91.64877319335938,119.62213897705078,143.82009887695312
91.66905975341797,119.63313293457031,143.82177734375
91.77996826171875,119.63907623291016,143.80349731445312
91.82264709472656,119.66109466552734,143.80918884277344
91.83615112304688,119.67250061035156,143.80738830566406
91.86111450195312,119.69376373291016,143.8187255859375
91.8055648803711,119.6900405883789,143.8185577392578
91.84967803955078,119.68941497802734,143.81744384765625
91.8475570678711,119.6825942993164,143.81443786621094
91.54792785644531,119.6515884399414,143.83709716796875
91.5523910522461,119.65030670166016,143.83779907226562
91.53480529785156,119.6469497680664,143.84353637695312
91.57474517822266,119.65009307861328,143.8456268310547
91.54544067382812,119.648681640625,143.84446716308594
91.58171844482422,119.64592742919922,143.844970703125
91.57344055175781,119.64440155029297,143.84637451171875
91.57662963867188,119.64239501953125,143.845703125
91.66759490966797,119.6363525390625,143.8340301513672
91.75848388671875,119.64530944824219,143.821533203125
91.68875885009766,119.69039154052734,143.75213623046875
91.8133316040039,119.69109344482422,143.74440002441406
91.79801940917969,119.69552612304688,143.74620056152344
91.74259948730469,119.66959381103516,143.77120971679688
91.77689361572266,119.65592193603516,143.77688598632812
91.6533432006836,119.65938568115234,143.779296875
91.53343200683594,119.66181945800781,143.78952026367188
91.54447937011719,119.63719177246094,143.80596923828125
91.53858184814453,119.64214324951172,143.81060791015625
91.57496643066406,119.64112091064453,143.80662536621094
91.5962905883789,119.63780975341797,143.8124237060547
91.61538696289062,119.64059448242188,143.8211669921875
91.67407989501953,119.63851928710938,143.8184356689453
91.67015075683594,119.64447784423828,143.81979370117188
91.7614974975586,119.64430236816406,143.8152618408203
91.7311019897461,119.646484375,143.81787109375
91.65515899658203,119.62901306152344,143.82647705078125
91.57841491699219,119.62276458740234,143.83094787597656
91.72720336914062,119.62355041503906,143.8294677734375
91.8178939819336,119.62649536132812,143.838134765625
91.94055938720703,119.61714172363281,143.8309326171875
92.01774597167969,119.62850952148438,143.8431396484375
92.16824340820312,119.63716888427734,143.84103393554688
92.35867309570312,119.63731384277344,143.83013916015625
92.33145904541016,119.64740753173828,143.8277587890625
92.36737060546875,119.63938903808594,143.83863830566406
92.27745819091797,119.63541412353516,143.84083557128906
92.34336853027344,119.63151550292969,143.841796875
92.34142303466797,119.63313293457031,143.8422088623047
92.33350372314453,119.63489532470703,143.8376007080078
92.39714813232422,119.61495208740234,143.82139587402344
92.37245178222656,119.61807250976562,143.81918334960938
92.48622131347656,119.62553405761719,143.81163024902344
92.52941131591797,119.64205169677734,143.79409790039062
92.5348892211914,119.64893341064453,143.8002166748047
92.55034637451172,119.6500473022461,143.8085174560547
92.5198974609375,119.64266204833984,143.8038787841797
92.46538543701172,119.62869262695312,143.8112335205078
92.555908203125,119.60821533203125,143.79307556152344
92.52814483642578,119.60724639892578,143.7964630126953
92.56580352783203,119.57666778564453,143.80636596679688
92.6349868774414,119.59041595458984,143.8021697998047
92.69589233398438,119.5928955078125,143.77125549316406
92.88739776611328,119.5985107421875,143.76365661621094
93.09281921386719,119.60929107666016,143.73379516601562
93.1219482421875,119.62055969238281,143.7092742919922
92.99243927001953,119.6215591430664,143.71656799316406
92.89602661132812,119.62642669677734,143.7052764892578
92.671630859375,119.6028823852539,143.6900634765625
92.60945129394531,119.61468505859375,143.6887664794922
92.97996520996094,119.61448669433594,143.66510009765625
93.04470825195312,119.6187744140625,143.65097045898438
93.0616683959961,119.62508392333984,143.6619873046875
93.00387573242188,119.62710571289062,143.6586151123047
92.9966049194336,119.6323471069336,143.65994262695312
93.12486267089844,119.63555908203125,143.65109252929688
93.11909484863281,119.64119720458984,143.66006469726562
93.2315673828125,119.65682220458984,143.6598663330078
93.30890655517578,119.66555786132812,143.65362548828125
93.3536148071289,119.6661148071289,143.64981079101562
93.29399871826172,119.66785430908203,143.6629180908203
93.25959777832031,119.67227172851562,143.6573944091797
93.34330749511719,119.67719268798828,143.64804077148438
93.34280395507812,119.67688751220703,143.6388702392578
93.4483642578125,119.68325805664062,143.6335906982422
93.2961196899414,119.67913818359375,143.64920043945312
93.26239013671875,119.68138885498047,143.65760803222656
93.22623443603516,119.69184112548828,143.66561889648438
93.16289520263672,119.69934844970703,143.656982421875
93.22030639648438,119.70121765136719,143.65267944335938
93.16230010986328,119.70093536376953,143.66236877441406
93.29700469970703,119.70392608642578,143.6574249267578
93.23197174072266,119.69408416748047,143.6633758544922
93.30585479736328,119.69718170166016,143.6630401611328
93.26873016357422,119.68681335449219,143.67401123046875
93.41655731201172,119.69086456298828,143.67022705078125
93.294921875,119.68480682373047,143.67904663085938
93.5159683227539,119.69105529785156,143.67137145996094
93.53263092041016,119.6929702758789,143.6746826171875
93.58863067626953,119.69155883789062,143.6732635498047
95.19017791748047,119.72466278076172,143.3590850830078
95.28594207763672,119.7314224243164,143.33485412597656
95.33464050292969,119.73570251464844,143.32598876953125
95.60811614990234,119.74424743652344,143.32052612304688
95.72379302978516,119.74413299560547,143.31446838378906
95.68125915527344,119.74331665039062,143.31881713867188
95.78282928466797,119.73281860351562,143.3070831298828
95.77732849121094,119.72679901123047,143.2981719970703
95.8104248046875,119.72917175292969,143.29588317871094
95.84803009033203,119.7275390625,143.29420471191406
95.69850158691406,119.73149108886719,143.30255126953125
95.75250244140625,119.74250030517578,143.2932586669922
95.61723327636719,119.75733184814453,143.27110290527344
95.786376953125,119.7672348022461,143.27015686035156
95.78535461425781,119.76138305664062,143.26974487304688
95.89617919921875,119.76580047607422,143.2696990966797
95.71114349365234,119.75370788574219,143.27650451660156
95.58436584472656,119.73977661132812,143.28948974609375
95.05199432373047,119.7543716430664,143.33460998535156
94.96469116210938,119.75496673583984,143.34164428710938
94.72720336914062,119.73558807373047,143.3701934814453
94.81939697265625,119.74093627929688,143.3677215576172
94.32524871826172,119.72943115234375,143.41671752929688
94.04842376708984,119.7373046875,143.4433135986328
94.1626968383789,119.74636840820312,143.43927001953125
94.19401550292969,119.74803924560547,143.4368438720703
93.94554138183594,119.73567962646484,143.47349548339844
93.79979705810547,119.74642181396484,143.48793029785156
93.74650573730469,119.7505111694336,143.4851531982422
93.59811401367188,119.73462677001953,143.5064697265625
91.26778411865234,119.74411010742188,143.7799530029297
91.26607513427734,119.74524688720703,143.78335571289062
91.32681274414062,119.74808502197266,143.78427124023438
91.3525161743164,119.74602508544922,143.78536987304688
91.23605346679688,119.75910949707031,143.79405212402344
91.10104370117188,119.76643371582031,143.8114471435547
91.29087829589844,119.78144836425781,143.8179473876953
91.23655700683594,119.77995300292969,143.8081817626953
91.44429016113281,119.7905044555664,143.79229736328125
91.51470947265625,119.783447265625,143.7988739013672
91.47093963623047,119.77473449707031,143.8001708984375
91.55551147460938,119.77429962158203,143.78750610351562
91.57703399658203,119.775146484375,143.78819274902344
91.62345886230469,119.76280212402344,143.79270935058594
91.5041275024414,119.76309967041016,143.781005859375
91.41260528564453,119.76632690429688,143.78211975097656
91.47066497802734,119.76921081542969,143.77804565429688
91.39029693603516,119.76905822753906,143.7764129638672
91.3803939819336,119.7730712890625,143.75965881347656
91.20228576660156,119.78881072998047,143.78390502929688
91.25983428955078,119.80036163330078,143.76869201660156
91.2500991821289,119.8138427734375,143.77581787109375
91.24382019042969,119.80586242675781,143.7747802734375
91.20586395263672,119.8077392578125,143.7790985107422
91.2088394165039,119.8039321899414,143.786865234375
91.27313232421875,119.80086517333984,143.7962188720703
91.3284912109375,119.8130874633789,143.7845458984375
91.2535400390625,119.80308532714844,143.7720184326172
91.16393280029297,119.8045883178711,143.77793884277344
91.0483627319336,119.80486297607422,143.78140258789062
91.18071746826172,119.8067626953125,143.75384521484375
91.17166900634766,119.80657958984375,143.7679901123047
91.20172882080078,119.81698608398438,143.7574920654297
91.2412109375,119.82832336425781,143.76988220214844
91.39778900146484,119.83552551269531,143.7668914794922
91.489990234375,119.8397216796875,143.75479125976562
91.53353881835938,119.83814239501953,143.754150390625
91.42176818847656,119.82184600830078,143.7622528076172
91.43209838867188,119.80831909179688,143.7643585205078
91.438232421875,119.80142211914062,143.7382354736328
91.50634002685547,119.80353546142578,143.73388671875
91.52986145019531,119.8143081665039,143.72250366210938
91.57732391357422,119.82386779785156,143.72161865234375
91.6720199584961,119.84220886230469,143.7107696533203
91.7685317993164,119.84324645996094,143.7292022705078
91.82408905029297,119.8476333618164,143.7323760986328
91.78223419189453,119.844482421875,143.7101287841797
91.88632202148438,119.84876251220703,143.70567321777344
91.86328887939453,119.84593200683594,143.71031188964844
91.8756332397461,119.84322357177734,143.71347045898438
91.94185638427734,119.8320083618164,143.71873474121094
91.80842590332031,119.79688262939453,143.73538208007812
91.8261489868164,119.78741455078125,143.75697326660156
91.7622299194336,119.79963684082031,143.77163696289062
91.93912506103516,119.79243469238281,143.783203125
91.87100219726562,119.7780532836914,143.7936248779297
92.01893615722656,119.78317260742188,143.7836456298828
91.91175079345703,119.7579345703125,143.78585815429688
91.8652572631836,119.7529296875,143.79010009765625
91.82359313964844,119.7537612915039,143.81097412109375
91.7552261352539,119.7436752319336,143.8070068359375
91.93194580078125,119.73663330078125,143.79600524902344
91.92277526855469,119.74671936035156,143.78848266601562
92.05679321289062,119.74459838867188,143.7705841064453
92.33932495117188,119.75141906738281,143.75515747070312
92.14118194580078,119.74230194091797,143.776123046875
92.17677307128906,119.74205017089844,143.7653045654297
92.20818328857422,119.74993133544922,143.7667999267578
92.25978088378906,119.75198364257812,143.771728515625
92.21907043457031,119.75326538085938,143.77365112304688
92.15433502197266,119.75684356689453,143.79249572753906
92.0868911743164,119.76597595214844,143.7697296142578
92.03207397460938,119.76363372802734,143.77728271484375
92.04827117919922,119.7632827758789,143.7730255126953
92.03327178955078,119.76346588134766,143.77491760253906
92.02832794189453,119.76578521728516,143.77505493164062
91.93270874023438,119.76004791259766,143.7773895263672
91.93972778320312,119.76453399658203,143.77615356445312
91.86820220947266,119.76031494140625,143.7891845703125
91.88711547851562,119.75475311279297,143.7903594970703
91.93408203125,119.757080078125,143.78819274902344
91.83963775634766,119.7367172241211,143.77366638183594
91.93220520019531,119.73722839355469,143.77088928222656
92.06139373779297,119.74038696289062,143.76271057128906
92.01167297363281,119.73796844482422,143.7635498046875
91.9278793334961,119.73886108398438,143.7629852294922
91.87408447265625,119.74488830566406,143.7620086669922
91.73953247070312,119.75434112548828,143.76380920410156
91.77983093261719,119.76512145996094,143.77035522460938
92.04473114013672,119.7779312133789,143.76451110839844
91.94296264648438,119.78079223632812,143.7729949951172
92.1897964477539,119.79655456542969,143.74826049804688
92.11160278320312,119.78861999511719,143.74810791015625
92.0695571899414,119.7851791381836,143.75389099121094
92.01557159423828,119.78640747070312,143.74681091308594
92.1056137084961,119.7896728515625,143.7440643310547
92.08197784423828,119.78860473632812,143.74273681640625
92.10222625732422,119.79158782958984,143.7357177734375
92.05119323730469,119.78751373291016,143.74557495117188
92.00646209716797,119.79167938232422,143.745849609375
92.04981231689453,119.79452514648438,143.74684143066406
92.01158905029297,119.80486297607422,143.74725341796875
91.97154235839844,119.80020904541016,143.75355529785156
92.13534545898438,119.80059814453125,143.75244140625
92.06273651123047,119.81153106689453,143.76641845703125
92.14059448242188,119.80597686767578,143.75479125976562
92.11112213134766,119.80012512207031,143.76626586914062
92.01326751708984,119.80179595947266,143.77565002441406
91.9767837524414,119.78060913085938,143.79702758789062
92.2834243774414,119.76580810546875,143.78538513183594
92.09949493408203,119.77937316894531,143.79885864257812
92.14681243896484,119.78938293457031,143.7749481201172
92.05299377441406,119.78500366210938,143.79647827148438
92.08629608154297,119.80509185791016,143.7732696533203
92.11406707763672,119.81900024414062,143.77354431152344
92.13843536376953,119.81201934814453,143.78948974609375
92.19026947021484,119.80615997314453,143.76502990722656
92.24016571044922,119.81752014160156,143.72666931152344
92.23773193359375,119.82100677490234,143.74563598632812
92.25536346435547,119.82708740234375,143.69203186035156
91.88594055175781,119.8292236328125,143.74362182617188
91.76182556152344,119.83324432373047,143.76547241210938
91.88494110107422,119.82706451416016,143.74188232421875
92.04779052734375,119.83049774169922,143.7310333251953
91.90027618408203,119.84833526611328,143.73825073242188
91.95333862304688,119.86832427978516,143.70225524902344
92.23321533203125,119.86709594726562,143.69422912597656
92.36027526855469,119.85547637939453,143.67800903320312
92.51933288574219,119.85411071777344,143.6558837890625
92.45532989501953,119.84034729003906,143.65628051757812
92.41809844970703,119.82975769042969,143.66943359375
92.52516174316406,119.82768249511719,143.6759796142578
92.49644470214844,119.82588958740234,143.68133544921875
92.51825714111328,119.82169342041016,143.70046997070312
92.4669189453125,119.82646179199219,143.70053100585938
92.51071166992188,119.8231430053711,143.6941375732422
92.48048400878906,119.82279205322266,143.71420288085938
92.52544403076172,119.825927734375,143.71717834472656
92.53340148925781,119.8295669555664,143.7174072265625
92.54280090332031,119.82210540771484,143.74209594726562
92.44477844238281,119.81605529785156,143.72836303710938
92.38017272949219,119.80706024169922,143.73223876953125
92.45014190673828,119.81114196777344,143.745361328125
92.48246765136719,119.82524871826172,143.73907470703125
92.60099029541016,119.82575988769531,143.734375
92.57164764404297,119.82234191894531,143.74310302734375
92.50089263916016,119.81192016601562,143.74264526367188
92.35162353515625,119.8016357421875,143.73440551757812
92.44988250732422,119.79708862304688,143.73178100585938
92.41676330566406,119.77323150634766,143.73519897460938
92.50696563720703,119.76306915283203,143.76380920410156
92.53221893310547,119.75994873046875,143.762939453125
92.3303451538086,119.74443054199219,143.78573608398438
92.34553527832031,119.73270416259766,143.81460571289062
92.5177001953125,119.74485778808594,143.812255859375
92.59272766113281,119.76078796386719,143.8202667236328
92.63878631591797,119.73914337158203,143.83570861816406
92.7073745727539,119.74866485595703,143.81539916992188
92.82847595214844,119.74656677246094,143.8181915283203
92.73947143554688,119.74288177490234,143.81031799316406
92.86371612548828,119.74657440185547,143.8098907470703
92.79722595214844,119.75062561035156,143.8022918701172
92.7722396850586,119.74857330322266,143.8023223876953
92.78128814697266,119.74382781982422,143.79652404785156
92.73980712890625,119.72697448730469,143.79798889160156
92.73367309570312,119.7314453125,143.79039001464844
92.79949188232422,119.72168731689453,143.76405334472656
92.8611068725586,119.7269058227539,143.7438201904297
92.86651611328125,119.72720336914062,143.74331665039062
92.87338256835938,119.71231079101562,143.7581329345703
92.73200988769531,119.71100616455078,143.7609405517578
92.56390380859375,119.69731903076172,143.7881622314453
92.6736831665039,119.704345703125,143.75816345214844
92.65015411376953,119.69249725341797,143.74139404296875
92.75532531738281,119.69336700439453,143.73333740234375
92.63457489013672,119.68903350830078,143.74656677246094
92.68185424804688,119.71630096435547,143.73973083496094
92.56472778320312,119.70458221435547,143.7535400390625
92.41838836669922,119.71027374267578,143.7647705078125
92.39949035644531,119.7200698852539,143.77391052246094
92.12356567382812,119.72059631347656,143.79315185546875
92.08834838867188,119.7334976196289,143.78512573242188
92.35430908203125,119.7518539428711,143.78573608398438
92.2235107421875,119.74736022949219,143.7897186279297
92.59820556640625,119.75049591064453,143.768310546875
92.48729705810547,119.74703216552734,143.7719268798828
92.55742645263672,119.77713012695312,143.7574462890625
92.41548156738281,119.7651596069336,143.7723388671875
92.30094909667969,119.75464630126953,143.76443481445312
92.36726379394531,119.75407409667969,143.73794555664062
92.42274475097656,119.75648498535156,143.7282257080078
92.39222717285156,119.76472473144531,143.73094177246094
92.421142578125,119.77737426757812,143.72018432617188
92.4742660522461,119.77941131591797,143.71678161621094
92.45974731445312,119.78718566894531,143.71726989746094
92.49089050292969,119.79693603515625,143.71730041503906
92.4583740234375,119.80770111083984,143.68133544921875
92.56464385986328,119.8241195678711,143.70358276367188
92.71023559570312,119.85877990722656,143.6898193359375
92.57646179199219,119.85652923583984,143.69830322265625
92.66272735595703,119.85438537597656,143.67764282226562
92.58365631103516,119.81690216064453,143.69134521484375
92.55573272705078,119.82388305664062,143.69683837890625
92.58518981933594,119.8190689086914,143.70068359375
92.61040496826172,119.81990051269531,143.6947021484375
92.56365966796875,119.79976654052734,143.69915771484375
92.57671356201172,119.79683685302734,143.6998748779297
92.59353637695312,119.79541015625,143.68612670898438
92.54794311523438,119.79460144042969,143.6737518310547
92.6158218383789,119.79920196533203,143.6728973388672
92.725830078125,119.77543640136719,143.687744140625
92.70234680175781,119.77191925048828,143.69033813476562
92.78987121582031,119.77330780029297,143.67645263671875
92.77236938476562,119.76860046386719,143.6817626953125
92.75467681884766,119.75332641601562,143.68258666992188
92.71277618408203,119.76424407958984,143.68914794921875
92.89893341064453,119.7642593383789,143.66070556640625
92.8328628540039,119.77723693847656,143.66929626464844
92.87703704833984,119.78246307373047,143.65838623046875
92.78437805175781,119.78536224365234,143.67420959472656
92.69219207763672,119.7851333618164,143.67857360839844
92.75115966796875,119.78543853759766,143.656494140625
92.65654754638672,119.80176544189453,143.64976501464844
92.71744537353516,119.80203247070312,143.64564514160156
92.61247253417969,119.79849243164062,143.6514892578125
92.64739227294922,119.79356384277344,143.64797973632812
92.66097259521484,119.79235076904297,143.6529083251953
92.43965911865234,119.79683685302734,143.65267944335938
92.43598937988281,119.7957992553711,143.66616821289062
92.3958740234375,119.80193328857422,143.67335510253906
92.44841766357422,119.81475830078125,143.67147827148438
92.56236267089844,119.81912994384766,143.66270446777344
92.63190460205078,119.82646942138672,143.6456298828125
92.6653060913086,119.8234634399414,143.6478271484375
92.80796813964844,119.82760620117188,143.63824462890625
92.881103515625,119.83085632324219,143.63600158691406
93.00596618652344,119.8326644897461,143.63409423828125
93.02957916259766,119.84071350097656,143.63525390625
93.21900939941406,119.8357162475586,143.62173461914062
93.22565460205078,119.84263610839844,143.6313934326172
94.55012512207031,119.8409423828125,143.48634338378906
94.83892822265625,119.85603332519531,143.43507385253906
95.1096420288086,119.857666015625,143.40545654296875
95.04573059082031,119.85505676269531,143.41148376464844
95.04698944091797,119.86347198486328,143.4178009033203
95.11058044433594,119.87368774414062,143.41806030273438
95.14562225341797,119.8793716430664,143.43182373046875
95.16204071044922,119.88627624511719,143.4353790283203
95.30126190185547,119.89456939697266,143.4456024169922
95.56328582763672,119.89873504638672,143.4327850341797
95.54450988769531,119.90460205078125,143.43081665039062
95.60516357421875,119.90608215332031,143.43228149414062
95.58600616455078,119.90382385253906,143.43252563476562
95.52330017089844,119.90705108642578,143.44000244140625
95.50928497314453,119.9052734375,143.44174194335938
95.51325988769531,119.9118423461914,143.43711853027344
95.72761535644531,119.9228744506836,143.4138641357422
95.85577392578125,119.92459106445312,143.39393615722656
95.89791107177734,119.92137908935547,143.40126037597656
95.98101043701172,119.92106628417969,143.39451599121094
95.97925567626953,119.91471862792969,143.39627075195312
95.99636840820312,119.91109466552734,143.40252685546875
95.9897232055664,119.91234588623047,143.40122985839844
95.94303131103516,119.91627502441406,143.4046173095703
95.82320404052734,119.91382598876953,143.40902709960938
95.63087463378906,119.90227508544922,143.4351043701172
95.67584228515625,119.90129089355469,143.43577575683594
95.55307006835938,119.8956527709961,143.4352264404297
95.5830307006836,119.89828491210938,143.4402313232422
95.56258392333984,119.89895629882812,143.44198608398438
91.69672393798828,119.921630859375,143.8958740234375
91.73428344726562,119.90504455566406,143.88455200195312
91.75371551513672,119.90001678466797,143.89183044433594
91.7541275024414,119.88800811767578,143.896728515625
92.02576446533203,119.88860321044922,143.86074829101562
92.15202331542969,119.88652038574219,143.8392791748047
92.21849822998047,119.89213562011719,143.8363800048828
92.30095672607422,119.89063262939453,143.83306884765625
92.48143768310547,119.89786529541016,143.80902099609375
92.48522186279297,119.8972396850586,143.79307556152344
92.57261657714844,119.88949584960938,143.78567504882812
92.58223724365234,119.89141845703125,143.78826904296875
92.60478210449219,119.89615631103516,143.77224731445312
92.53888702392578,119.89606475830078,143.7836456298828
92.63031768798828,119.89429473876953,143.78326416015625
92.82980346679688,119.88650512695312,143.75721740722656
92.96697235107422,119.88357543945312,143.7445068359375
92.91563415527344,119.88048553466797,143.75680541992188
93.08914947509766,119.8861083984375,143.7520294189453
93.15011596679688,119.87994384765625,143.7526092529297
93.23983764648438,119.88338470458984,143.74658203125
93.22781372070312,119.8901596069336,143.74722290039062
93.30828857421875,119.90302276611328,143.73716735839844
93.32491302490234,119.90513610839844,143.72201538085938
93.47288513183594,119.884033203125,143.7327880859375
93.4704360961914,119.85970306396484,143.74501037597656
93.53031158447266,119.85771179199219,143.73899841308594
93.56123352050781,119.87420654296875,143.6948699951172
93.5295181274414,119.85453033447266,143.6829376220703
93.61824798583984,119.85636138916016,143.6800537109375
93.55641174316406,119.83294677734375,143.67916870117188
93.40592956542969,119.82672119140625,143.70294189453125
93.44146728515625,119.83319091796875,143.69821166992188
93.45378112792969,119.82913208007812,143.70558166503906
93.40680694580078,119.82192993164062,143.706298828125
93.36617279052734,119.8286361694336,143.70359802246094
93.2909164428711,119.8366928100586,143.71560668945312
93.24765014648438,119.82919311523438,143.73545837402344
93.36561584472656,119.83369445800781,143.72329711914062
93.39532470703125,119.83474731445312,143.71908569335938
93.22124481201172,119.82807159423828,143.71360778808594
93.38736724853516,119.83077239990234,143.67559814453125
93.30533599853516,119.8271713256836,143.6894073486328
93.28075408935547,119.83065795898438,143.69387817382812
93.28763580322266,119.82952117919922,143.6966094970703
93.27423095703125,119.82656860351562,143.6893768310547
93.26856994628906,119.81835174560547,143.68283081054688
93.1946792602539,119.79801177978516,143.68801879882812
93.23124694824219,119.77446746826172,143.68006896972656
93.22404479980469,119.77017211914062,143.6786346435547
93.32946014404297,119.76579284667969,143.67010498046875
93.35385131835938,119.76398468017578,143.6747283935547
93.46096801757812,119.75859069824219,143.6837158203125
93.50509643554688,119.75753021240234,143.6819305419922
93.54183197021484,119.75347900390625,143.68153381347656
93.77835845947266,119.76176452636719,143.65167236328125
93.88031768798828,119.76425170898438,143.640869140625
93.80738830566406,119.75712585449219,143.6400604248047
93.84196472167969,119.7589340209961,143.6403045654297
93.83766174316406,119.7630844116211,143.63938903808594
93.60324096679688,119.7481689453125,143.650146484375
93.50353240966797,119.7427978515625,143.67604064941406
93.42926788330078,119.73981475830078,143.6927032470703
93.40913391113281,119.72625732421875,143.69676208496094
93.4257583618164,119.71391296386719,143.68106079101562
93.38819122314453,119.71248626708984,143.6805419921875
93.41463470458984,119.7074966430664,143.68296813964844
93.38797760009766,119.70381927490234,143.68223571777344
93.52584838867188,119.70113372802734,143.6769561767578
93.43296813964844,119.70393371582031,143.69195556640625
93.41915893554688,119.70123291015625,143.6807098388672
93.398193359375,119.70220184326172,143.6783905029297
93.27999877929688,119.69475555419922,143.687744140625
93.50122833251953,119.694091796875,143.67559814453125
93.49153137207031,119.6886215209961,143.6754608154297
93.44740295410156,119.6799545288086,143.67901611328125
93.39015197753906,119.67581176757812,143.6858673095703
93.34941864013672,119.68155670166016,143.6948699951172
93.39630126953125,119.68341827392578,143.69317626953125
93.25511932373047,119.68172454833984,143.71038818359375
93.25067138671875,119.67657470703125,143.71791076660156
93.1939697265625,119.67314147949219,143.72195434570312
93.22356414794922,119.67511749267578,143.72564697265625
93.22822570800781,119.67399597167969,143.7239532470703
93.17391204833984,119.6760025024414,143.72769165039062
93.19044494628906,119.6708755493164,143.72406005859375
93.16389465332031,119.6734619140625,143.73193359375
93.10103607177734,119.6701431274414,143.7537384033203
93.11424255371094,119.66673278808594,143.74398803710938
93.13578796386719,119.66216278076172,143.7501220703125
92.9535140991211,119.64863586425781,143.79196166992188
93.04106140136719,119.64352416992188,143.78936767578125
93.08323669433594,119.64539337158203,143.7999267578125
93.1229019165039,119.64541625976562,143.80789184570312
93.2330093383789,119.66295623779297,143.77706909179688
93.18496704101562,119.67058563232422,143.78671264648438
93.20394134521484,119.66675567626953,143.7862548828125
93.16537475585938,119.66866302490234,143.8072052001953
93.12516784667969,119.66922760009766,143.82998657226562
93.16822814941406,119.6783447265625,143.8358612060547
93.18285369873047,119.68165588378906,143.83583068847656
93.19052124023438,119.67804718017578,143.83456420898438
93.1321792602539,119.6722183227539,143.82398986816406
93.05667114257812,119.67505645751953,143.85147094726562
93.01905822753906,119.67756652832031,143.83926391601562
93.08013153076172,119.6836166381836,143.82980346679688
93.03338623046875,119.66158294677734,143.842041015625
93.11796569824219,119.66222381591797,143.8351287841797
93.09725189208984,119.6566390991211,143.8416748046875
93.16352844238281,119.6584701538086,143.84742736816406
93.04026794433594,119.6405258178711,143.8545684814453
93.18637084960938,119.64437103271484,143.84368896484375
93.08183288574219,119.64375305175781,143.8648223876953
93.27665710449219,119.65101623535156,143.8572540283203
93.15621948242188,119.65349578857422,143.86575317382812
93.31922149658203,119.6559066772461,143.8556365966797
93.2197494506836,119.65372467041016,143.86077880859375
93.16470336914062,119.65274810791016,143.86016845703125
93.24678802490234,119.65882110595703,143.85537719726562
93.30694580078125,119.66722869873047,143.84683227539062
93.20227813720703,119.66307067871094,143.85330200195312
93.26274871826172,119.67646789550781,143.84768676757812
93.25391387939453,119.67186737060547,143.84097290039062
93.24824523925781,119.66498565673828,143.8440704345703
93.25199890136719,119.6753158569336,143.84317016601562
93.48912811279297,119.68365478515625,143.7954864501953
93.58080291748047,119.69011688232422,143.79232788085938
93.82913208007812,119.68354034423828,143.79164123535156
93.93698120117188,119.68477630615234,143.7875213623047
94.11294555664062,119.67359161376953,143.7609405517578
94.37035369873047,119.66828918457031,143.7158966064453
94.54668426513672,119.66180419921875,143.66683959960938
94.59149169921875,119.65959930419922,143.68017578125
94.78217315673828,119.6688003540039,143.66986083984375
94.83031463623047,119.68155670166016,143.6678924560547
94.88373565673828,119.67994689941406,143.6462860107422
94.80924987792969,119.67935180664062,143.6587677001953
94.75150299072266,119.66252136230469,143.66973876953125
94.68982696533203,119.66621398925781,143.66796875
94.69530487060547,119.63526916503906,143.65460205078125
94.57710266113281,119.6257095336914,143.6497039794922
94.60914611816406,119.63654327392578,143.64662170410156
94.5960693359375,119.64846801757812,143.63279724121094
94.5371322631836,119.64964294433594,143.64434814453125
94.52384948730469,119.65473937988281,143.63983154296875
94.54574584960938,119.66049194335938,143.63583374023438
94.53160858154297,119.66036987304688,143.6283416748047
94.59423828125,119.65582275390625,143.62335205078125
94.70760345458984,119.65796661376953,143.62594604492188
94.76020812988281,119.6633529663086,143.63165283203125
94.63323974609375,119.67840576171875,143.62452697753906
94.67741394042969,119.67372131347656,143.63677978515625
94.6655044555664,119.68338012695312,143.63914489746094
94.7905502319336,119.69818878173828,143.63095092773438
94.93484497070312,119.71002960205078,143.614501953125
95.08905029296875,119.71926879882812,143.60232543945312
95.09734344482422,119.71488952636719,143.59780883789062
95.0443344116211,119.71833038330078,143.59693908691406
95.10774230957031,119.7174301147461,143.58187866210938
95.21365356445312,119.72115325927734,143.57081604003906
95.01885986328125,119.7059555053711,143.58489990234375
94.90219116210938,119.69773864746094,143.58441162109375
94.9046401977539,119.69418334960938,143.57264709472656
94.85269927978516,119.68220520019531,143.57130432128906
94.82600402832031,119.6788330078125,143.57327270507812
95.16215515136719,119.67778015136719,143.53282165527344
95.39006042480469,119.6814193725586,143.5187530517578
95.43312072753906,119.66830444335938,143.5348358154297
95.6026840209961,119.66266632080078,143.51332092285156
95.67366027832031,119.6746826171875,143.51046752929688
95.67231750488281,119.67313385009766,143.51077270507812
95.75816345214844,119.67717742919922,143.5077362060547
95.78996276855469,119.68087768554688,143.5117950439453
95.8189697265625,119.67765808105469,143.53109741210938
95.91343688964844,119.67463684082031,143.5341339111328
96.05132293701172,119.6657943725586,143.54124450683594
96.09996795654297,119.67292785644531,143.533447265625
96.11138153076172,119.67647552490234,143.54287719726562
96.13960266113281,119.67169952392578,143.53741455078125
96.1745376586914,119.67431640625,143.53387451171875
96.02690887451172,119.61614990234375,143.52284240722656
96.08480072021484,119.613525390625,143.51161193847656
96.05512237548828,119.60652923583984,143.50694274902344
96.01255798339844,119.60557556152344,143.51100158691406
96.12584686279297,119.6089859008789,143.4921875
96.1596908569336,119.61222839355469,143.47772216796875
96.1226577758789,119.61136627197266,143.4661407470703
96.28256225585938,119.60192108154297,143.4556121826172
96.29505920410156,119.60693359375,143.45880126953125
96.30674743652344,119.61089324951172,143.4615936279297
96.29512786865234,119.60062408447266,143.4682159423828
96.2286148071289,119.61682891845703,143.47682189941406
96.18919372558594,119.61495971679688,143.49554443359375
96.02159118652344,119.60472106933594,143.5018310546875
96.03404998779297,119.5943832397461,143.5032196044922
96.06023406982422,119.59744262695312,143.50587463378906
96.12895202636719,119.60416412353516,143.51052856445312
96.08243560791016,119.60443115234375,143.50411987304688
95.96728515625,119.60387420654297,143.51698303222656
96.05912780761719,119.60755157470703,143.50607299804688
96.0956802368164,119.60982513427734,143.50537109375
96.23633575439453,119.61181640625,143.50355529785156
96.00948333740234,119.62110900878906,143.52015686035156
95.85424041748047,119.63246154785156,143.52989196777344
95.7706527709961,119.6298599243164,143.54441833496094
95.77936553955078,119.6291732788086,143.54515075683594
95.7433853149414,119.62716674804688,143.54579162597656
95.66414642333984,119.61708068847656,143.5371551513672
95.63924407958984,119.61384582519531,143.53822326660156
95.67548370361328,119.61112213134766,143.54177856445312
95.05891418457031,119.6107177734375,143.6026611328125
95.14376068115234,119.6231689453125,143.58750915527344
94.97130584716797,119.62064361572266,143.62655639648438
95.03469848632812,119.62755584716797,143.62261962890625
95.11907958984375,119.63124084472656,143.62742614746094
95.23477935791016,119.64234161376953,143.63108825683594
95.27459716796875,119.64456176757812,143.62881469726562
95.22821044921875,119.64469146728516,143.6316375732422
95.22047424316406,119.65109252929688,143.61996459960938
95.10076904296875,119.64508819580078,143.6272430419922
95.0535888671875,119.64427185058594,143.6356658935547
95.11628723144531,119.64844512939453,143.62779235839844
95.05565643310547,119.64727783203125,143.62754821777344
94.98741149902344,119.65601348876953,143.6191864013672
95.01225280761719,119.65955352783203,143.6230926513672
94.98145294189453,119.66158294677734,143.63555908203125
95.16720581054688,119.66015625,143.61618041992188
95.28096008300781,119.65830993652344,143.6045684814453
95.2981185913086,119.65803527832031,143.6100311279297
95.32676696777344,119.65467071533203,143.61593627929688
95.45606994628906,119.66120147705078,143.59410095214844
95.5566177368164,119.660888671875,143.61968994140625
95.59225463867188,119.66893005371094,143.6230926513672
95.6392822265625,119.6715316772461,143.61878967285156
95.68303680419922,119.67811584472656,143.62086486816406
95.70987701416016,119.68291473388672,143.61363220214844
95.76428985595703,119.66735076904297,143.62010192871094
95.71879577636719,119.68192291259766,143.59310913085938
95.75,119.68688201904297,143.58914184570312
95.80706787109375,119.7025146484375,143.57809448242188
95.91358947753906,119.67381286621094,143.5159149169922
95.87655639648438,119.68428039550781,143.5077667236328
95.91828918457031,119.68877410888672,143.50376892089844
95.86553955078125,119.69425201416016,143.49423217773438
95.83341217041016,119.67252349853516,143.47874450683594
95.82735443115234,119.66703033447266,143.48440551757812
95.74205017089844,119.66583251953125,143.48191833496094
95.71914672851562,119.65312194824219,143.486083984375
95.88600158691406,119.65819549560547,143.4690704345703
96.02884674072266,119.66315460205078,143.4743194580078
96.15670013427734,119.6817398071289,143.45457458496094
96.14529418945312,119.66071319580078,143.4533233642578
96.28016662597656,119.66189575195312,143.4353790283203
96.36876678466797,119.6504135131836,143.43402099609375
96.45893859863281,119.65176391601562,143.42710876464844
96.45481872558594,119.64654541015625,143.43113708496094
96.379638671875,119.63069915771484,143.42417907714844
96.42496490478516,119.6340560913086,143.4123992919922
96.24231719970703,119.63069152832031,143.42478942871094
96.04852294921875,119.61676025390625,143.42967224121094
96.01679229736328,119.61991119384766,143.43283081054688
96.10466766357422,119.61878967285156,143.4313201904297
96.03467559814453,119.60370635986328,143.43211364746094
96.07695007324219,119.5886001586914,143.44003295898438
96.02713012695312,119.5894546508789,143.4312286376953
96.17298126220703,119.59503936767578,143.4182891845703
96.21636199951172,119.5965805053711,143.4390869140625
96.30572509765625,119.6036605834961,143.44680786132812
96.22119140625,119.61929321289062,143.4602508544922
96.20697784423828,119.63755798339844,143.46041870117188
96.27803039550781,119.63088989257812,143.44540405273438
96.3775863647461,119.63105010986328,143.4473114013672
96.3356704711914,119.62500762939453,143.45033264160156
96.18959045410156,119.62353515625,143.44644165039062
96.34144592285156,119.61485290527344,143.43130493164062
96.39690399169922,119.60518646240234,143.41139221191406
96.37657928466797,119.60939025878906,143.40159606933594
96.2427978515625,119.60478973388672,143.4193572998047
96.3128662109375,119.61064147949219,143.4146728515625
96.15518951416016,119.6082534790039,143.4226531982422
96.20140838623047,119.60711669921875,143.41127014160156
96.24207305908203,119.60423278808594,143.40643310546875
96.36565399169922,119.6150894165039,143.38491821289062
96.51353454589844,119.609130859375,143.3963623046875
96.6004409790039,119.60565185546875,143.4104766845703
96.6230697631836,119.6141586303711,143.3983612060547
96.59751892089844,119.63089752197266,143.38539123535156
96.40692138671875,119.61259460449219,143.4003143310547
96.35719299316406,119.6149673461914,143.4011688232422
96.37742614746094,119.62141418457031,143.4021453857422
96.43648529052734,119.6378173828125,143.39361572265625
96.53156280517578,119.63961029052734,143.3874053955078
96.46595001220703,119.63959503173828,143.39939880371094
96.38629150390625,119.640625,143.40744018554688
96.44395446777344,119.63867950439453,143.4152374267578
96.42990112304688,119.64070892333984,143.41603088378906
96.48471069335938,119.63117218017578,143.441650390625
96.49420928955078,119.63060760498047,143.44163513183594
96.48250579833984,119.63319396972656,143.4397735595703
96.52523040771484,119.64186096191406,143.4274444580078
105.16551208496094,119.66960144042969,142.45082092285156
105.36808013916016,119.67557525634766,142.43055725097656
105.45174407958984,119.6778335571289,142.41893005371094
105.47244262695312,119.67169952392578,142.41497802734375
105.5426025390625,119.67352294921875,142.41578674316406
105.62667083740234,119.6620864868164,142.41163635253906
105.638427734375,119.65088653564453,142.41464233398438
105.6226577758789,119.65188598632812,142.4126739501953
105.68685913085938,119.65412902832031,142.40792846679688
105.65955352783203,119.6419448852539,142.41355895996094
105.67811584472656,119.6440658569336,142.4152069091797
105.73008728027344,119.64399719238281,142.42437744140625
105.73577117919922,119.64392852783203,142.4213104248047
105.75407409667969,119.64363098144531,142.41720581054688
105.77061462402344,119.6419677734375,142.42164611816406
105.58614349365234,119.63558959960938,142.42579650878906
105.57843780517578,119.63020324707031,142.4195556640625
105.60066223144531,119.62504577636719,142.39830017089844
105.59365844726562,119.61886596679688,142.39329528808594
105.6087875366211,119.6143569946289,142.3956298828125
105.5221939086914,119.60993194580078,142.3988037109375
105.56056213378906,119.60710144042969,142.3948516845703
105.6351089477539,119.60200500488281,142.3751220703125
105.63517761230469,119.60037231445312,142.37545776367188
105.60916900634766,119.59066772460938,142.3722686767578
105.62745666503906,119.59083557128906,142.3716278076172
105.63113403320312,119.58926391601562,142.36746215820312
105.68193817138672,119.59085845947266,142.364501953125
105.65454864501953,119.59654235839844,142.3628692626953
105.66248321533203,119.5965347290039,142.37564086914062
104.98675537109375,119.56999206542969,142.43890380859375
105.04829406738281,119.56996154785156,142.43927001953125
104.94164276123047,119.56388854980469,142.46127319335938
104.48444366455078,119.55589294433594,142.5307159423828
104.173095703125,119.54293060302734,142.57398986816406
104.57592010498047,119.62811279296875,142.58029174804688
104.69849395751953,119.6614990234375,142.59263610839844
104.7787094116211,119.666748046875,142.60299682617188
104.94969177246094,119.67622375488281,142.5857391357422
104.95174407958984,119.68873596191406,142.6038818359375
105.14559173583984,119.74201965332031,142.61277770996094
105.35681915283203,119.75537872314453,142.58920288085938
105.67938995361328,119.78214263916016,142.5465545654297
