y,u,v
0.0,0.0,0.0
0.0,0.0,0.0
0.9920717555716488,0.7994243879554532,0.8361477338184913
0.9926158164327691,0.7994431931354589,0.8361570755896712
0.9931024967618841,0.7994541972877951,0.8361735372177055
0.9937710496986605,0.7994603440434846,0.8361919937031272
0.9947313383645799,0.7994394791326808,0.8361882310452907
0.9957239664258689,0.7993775493527312,0.8361908422000824
0.9968376482720325,0.7993273697693439,0.836185246868386
0.9978984582882536,0.7992896215533345,0.8361875012194173
0.9989300752695373,0.7992607204487462,0.8361991135599814
0.9995430641298156,0.7992176526130369,0.836207725505288
0.9998089315863334,0.7991980689520995,0.8362548073833013
1.0,0.7992199475099501,0.836284876209287
0.9999621788014029,0.79925163817121,0.8363073386278361
0.9997039664073799,0.799289678317569,0.8363316823753036
0.9994001642237961,0.7993152141139631,0.8363600807109567
0.9993878382757114,0.7993330624111568,0.836380645582235
0.9992375752375465,0.7993541624880757,0.8363855921798217
0.9990389977265598,0.7994019336460804,0.8364213860843256
0.9989070452086419,0.7994553244633107,0.8364494113978657
0.9988023557416853,0.7994963731141035,0.8364584612386964
0.9985490575085435,0.7995284124699475,0.8364538552265175
0.9980404986215777,0.7995773189126444,0.8364520549893629
0.9975522126755412,0.7996050117499532,0.8364533200208769
0.9971745845502705,0.799593504828682,0.836417769391664
0.9967240711477726,0.7995370487427832,0.8363845055501878
0.9963658563907357,0.7993817499060917,0.836304257140815
0.995983687126697,0.7992336033629597,0.8362138722609775
0.9954685598068705,0.7991248998536991,0.8361382460821365
0.9948985009263029,0.7990339067856338,0.8360598141282709
0.9942867770975387,0.7989465385194068,0.8359953299577644
0.9937711307904243,0.7989014920446628,0.835961693094175
0.9931792420070646,0.7989596105117177,0.836006909861623
0.9926419928540965,0.7990223349909517,0.8360692532095674
0.9922629375137845,0.7990297548873316,0.836113594185967
0.9920140182358833,0.7990387317455749,0.8361662713956767
0.9916762223849498,0.7990494196400326,0.8362127531946383
0.9913857192506155,0.79903740184065,0.836238848524202
0.9911984134947852,0.7990155313919759,0.8362483524789095
0.9910069071855947,0.7989978858241914,0.8362512393456977
0.8262105688888707,0.6658018893216824,0.6968522278503334
0.6613825626365801,0.5326059868856204,0.5574358360473525
0.49653278396654754,0.39941559733796106,0.4180112678519388
0.3314860278161292,0.26622838992121195,0.2785868701294343
0.16632886144512965,0.1330571445171302,0.13914190789605832
0.0010125056348192455,-0.0001086741360211484,-0.00030401122012947837
0.00014140349267333853,-4.442080673455827e-05,-0.00035070331706563943
-0.0008485424134802458,1.9490585613420205e-05,-0.00037730465923468937
-0.0018343108323746363,8.618486708907715e-05,-0.0004046390709475344
-0.002803850807107037,0.00015496816249946886,-0.00041972159838834757
-0.003731728536700544,0.00020515882842774593,-0.00042420723434966024
-0.004304563278441786,0.0002177123740621529,-0.0004448119306931759
-0.004567726234537422,0.00019768405995348938,-0.000465921378215206
-0.004740025148574169,0.00016077514369836478,-0.0005043970774469307
-0.004851866548682813,9.547933473898352e-05,-0.0005251037692094959
-0.004835082896244028,3.588454707539214e-05,-0.0005519972219323137
-0.00468197011329895,-3.850119808648708e-05,-0.0005709229583600673
-0.004593713802156954,-8.660807599289623e-05,-0.0005754711250820235
-0.004632481611942447,-0.00016672106211999555,-0.0005708552016875236
-0.004571893450172374,-0.0002397213995511496,-0.0005486955257231812
-0.00449495178271999,-0.0002899032354874206,-0.0005328678550771784
-0.004283110542452072,-0.0003309196297791289,-0.0005159894153776207
-0.004004076666769461,-0.00034968669665542794,-0.0004999781169376101
-0.0034954229925431004,-0.0003597522568781997,-0.000480661518208361
-0.002675381270542901,-0.0003229780430532322,-0.0004491287155819549
-0.0017934560809991166,-0.0002905393553225743,-0.00042811261368942694
-0.0008146927290619043,-0.0002621755287195886,-0.0004045167124882599
0.00019500334644925252,-0.00025236784030601214,-0.00039216661707684296
0.0012321082578938005,-0.0002474595360530896,-0.00038616726819316253
0.002070489332768281,-0.00024981164770988666,-0.00038081449097326957
0.002656268122038575,-0.00025820068076845445,-0.0003869219622088929
0.002866410399753491,-0.0002639407162116704,-0.00039490805930263715
0.002928778255431499,-0.00026404649591231787,-0.0004082941470442014
0.002807942877706775,-0.0002621332709008405,-0.00041403724595531397
0.0024463979522392192,-0.00025210321085048496,-0.0004161339185573737
0.0019541489616090846,-0.0002449484845372835,-0.00042939404375955765
0.0013024732031044625,-0.0002449227153768998,-0.0004391834414747167
0.0007513820464788592,-0.00022771630454430754,-0.0004498214194473175
7.252144551425246e-05,-0.00018630832713643588,-0.0004339196849905189
-0.0006484647048639457,-0.00014280466824776025,-0.0004217119506775507
-0.0012808499942075198,-0.00010108223500048427,-0.0004038607702212239
-0.0017471146608904105,-6.125527667944422e-05,-0.0003764746399832196
-0.0020002865710840832,-2.320909348882392e-05,-0.00035227163177667116
-0.0022348349468245873,-4.312459994005342e-06,-0.00031150752297250746
-0.002254685129358698,-5.6101985200418195e-06,-0.0002986660114747144
-0.0021627166174785837,5.79355601519507e-07,-0.00028928477563531233
-0.002180343624259045,2.048477063676597e-05,-0.0001523741270796316
-0.0022729233878339555,4.394533869530403e-05,-1.3069469456223061e-05
-0.0023266383919156993,7.328686166230446e-05,0.00011725238319537469
-0.0022041173867291437,0.00011368948140449549,0.00022694539217680076
-0.0019990793850291405,0.00014593399941128268,0.0003386192026397894
-0.0016862347489743864,0.0001715032236301125,0.0004571349955153988
-0.0010377111174279697,0.00017720244288584942,0.0004528942566808937
-0.0002893345119169934,0.00018261333587038295,0.0004532422304502026
0.00043857200957746163,0.000192855586035472,0.00045240392181700265
0.0011728959530487454,0.0002019030842157966,0.00044619301353202733
0.0017486098128097062,0.00020999856508932752,0.0004530342751270803
0.002153394128116294,0.00021990824892292025,0.00046117120290056204
0.002352558563268572,0.00023433600542137843,0.00045944484935344775
0.00250848198674519,0.00024287938313662704,0.00044652044405285287
0.002505304991646627,0.00023658621176228848,0.0004587496226323976
0.0024067925546380946,0.0002372757620594918,0.00048678592861236197
0.0021267468339481277,0.0002517332522043235,0.0005109984876265509
0.0017568941473910785,0.0002787446483913794,0.0005345255509317224
0.0013938980397608322,0.0003109747500845098,0.000560880914750513
0.0007934418214624185,0.0003636271817549918,0.0005963358556816381
0.00015744650700223414,0.0004376418870472578,0.0006036950233410187
-0.0006357936662743472,0.0005017661002243749,0.000600788153917438
-0.0014010678131001623,0.0005539859523868225,0.0005909965937544088
-0.0021978091683277096,0.0005884070634337372,0.0005837754622977366
-0.0030780501720399653,0.0006182788364330479,0.0005738847899791625
-0.003785358484530648,0.0006389360622205201,0.000551834137385823
-0.00450829696417188,0.0006526451654888401,0.0005325171782497233
-0.00508588566551033,0.0006651764559388399,0.00051266339163744
-0.005500617237167635,0.0006813232677258714,0.0004890694726787847
-0.005857350898191171,0.0006909886851451284,0.0004840053821359789
-0.0061286143808707465,0.0006904257281017106,0.0005291765579924606
-0.006358696222265218,0.0006892910741231316,0.00057510495071746
-0.00635747407928441,0.0006921073009743895,0.0006258696562302603
-0.006337822121061388,0.0007035124971341286,0.0007086969638936972
-0.006244063643649098,0.0007214874776829321,0.0007917778184715557
-0.00608689591210946,0.0007627375964581465,0.0008547599893103235
-0.005986124258563619,0.0008216201281310808,0.000864778065799547
-0.005969900860110105,0.0008903818891727,0.0008786943134721922
-0.006097077073145175,0.0009607742253803732,0.0008933009223608377
-0.0061866389616829906,0.0010087152255789827,0.00086799308392428
-0.006293094427049655,0.0010357710420336235,0.0008332164305448606
-0.006389168164417254,0.001044301535166747,0.00078659821721607
-0.006510166806891894,0.0010236269197018506,0.0007296945047821866
-0.006651765640614751,0.0009444691044497044,0.0006708009806703425
-0.006654909297987801,0.0008082657562774351,0.0005898391439801802
-0.006702562062018369,0.0006800052562598727,0.0005160180677995757
-0.006774551004951212,0.0005541195735925612,0.0004474589460640828
-0.006884993301829177,0.0004211634099468231,0.0003906103760291392
-0.006964399438083844,0.0002683016510604798,0.00033714044927762865
-0.0069284734441065685,0.00015330632195550967,0.0002714305317120556
-0.006990732276412607,7.573988751469932e-05,0.00022008791222997143
-0.006919476583227951,-1.035893220341674e-05,0.00017733669480599328
-0.006826265024710726,-8.712913562634987e-05,0.00013874440363813686
-0.006634230898241307,-0.00016642778024154664,9.251254751360947e-05
-0.006310630971463152,-0.0002158514081870774,5.174609605911698e-05
-0.005903786925357223,-0.000268027470797312,2.0352410857904357e-05
-0.0054132590623594025,-0.0003086220077133075,-4.974529193934679e-06
-0.004915932465892832,-0.00033976656099513487,-3.963963634666383e-05
-0.0043134749028663055,-0.0003665210764952178,-6.888655225631837e-05
-0.00363962739473498,-0.00037538566769813593,-9.093414138369461e-05
-0.002917043376202802,-0.00037782238509559174,-0.00010527909418154702
-0.002209900490909905,-0.00037305310816566667,-0.0001096191253750223
-0.0015142465064964124,-0.00037142838962881796,-0.00010757435150251385
-0.0008339882439323938,-0.00037839552366105523,-9.256264420214111e-05
-0.00025091017080261085,-0.00039197938520562937,-8.118186567371268e-05
0.00024145505135680502,-0.00041077375297577707,-7.087294005953166e-05
0.0005570697820593083,-0.00042722745203805057,-7.2101390177626e-05
0.0007919576619829988,-0.0004354470934118756,-7.123695197719177e-05
0.0008934268849002181,-0.0004331656216901604,-7.165286262246979e-05
0.0009651462427702881,-0.00042746793416788845,-7.973194494079902e-05
0.0010473770754604026,-0.0004244942991920532,-9.110803816663646e-05
0.0011455505488969907,-0.0004221783184201443,-0.00010717916430721127
0.0012750252629233824,-0.0004241732659097424,-0.00011287504979039694
0.0014153050039548555,-0.00042980941379359316,-0.00012128786976587019
0.0017107060808177975,-0.0004461365196020811,-0.00014073836000647917
0.0019401155813880985,-0.0004555122592210616,-0.00016254735914433312
0.002143020689497991,-0.0004586151905088285,-0.00018036123739012405
0.0023255589704372893,-0.00045849220133418214,-0.00019754854660743518
0.002479183172105984,-0.0004441959936967551,-0.0002147479294880743
0.0025656415887447903,-0.0004347246558991728,-0.00023956759550571136
0.00256465677432566,-0.00042117097851195203,-0.00025293890652676817
0.002556177098695736,-0.00040570353550104475,-0.0002604701689290376
0.002540483499765485,-0.00039410020513337853,-0.00027939248148204385
0.0025661236342288847,-0.00037642301156025625,-0.0002991813946833546
0.0025588014083731893,-0.0003626135347095143,-0.0003191690728079643
0.0025839285022792443,-0.0003465000606460621,-0.00033427736940819453
0.0025802903653509546,-0.0003273457355464401,-0.0003506941266667828
0.002519030763777703,-0.00031142183600743026,-0.00035783002166935767
0.002422975767617569,-0.00029278947156032167,-0.0003483048028997126
0.002280324903415247,-0.00027931355216426516,-0.000329707217808419
0.0022963086306557875,-0.0002826217357160417,-0.00031223987169970137
0.002311443056822285,-0.0002882997810117899,-0.0002939365596100459
0.0023093519705418763,-0.0002970367878387,-0.0002763810937856596
0.0024318081023164927,-0.00029843571086498894,-0.00026611055160449945
0.002489394066790005,-0.0003029182833593716,-0.0002610142045605995
0.002555845883891379,-0.00030914820315743204,-0.0002507640254235309
0.002468423916895627,-0.00029706264710031296,-0.00023404470578447436
0.002364647002587262,-0.0002880829956976282,-0.00021741512769771416
0.002314671229833798,-0.00028901645200038326,-0.0002097096081056523
0.002179779946398059,-0.0002868323804973227,-0.00020128309263215674
0.0021184731313978475,-0.00027770856595710284,-0.00019360928892994656
0.001995709031125504,-0.00027224451281710767,-0.00018987456270083304
0.0019503763925581927,-0.00026336514489464885,-0.0001939350976160777
0.0018495186015382284,-0.00024925076301117644,-0.0002023825167439407
0.0016925381018707709,-0.00022674878970137193,-0.00020047920294695448
0.0015141428892426687,-0.00021439382878587202,-0.00020226754664346992
0.0012942717623278255,-0.00020522208000402407,-0.00020389244538374392
0.0010506400278277304,-0.000195611804983707,-0.00020052695698709073
0.0007275504385497412,-0.00018783618606683916,-0.00018434446482421769
0.0004682076253407415,-0.00016733790013740953,-0.00015607281252508638
0.0003210781531300266,-0.00014197555001535026,-0.00012537597588058478
0.00026769940956208134,-0.00010863890615628683,-8.915660992266345e-05
0.0003903456564723827,-8.055430552687716e-05,-4.786125996493376e-05
0.0005826001723360706,-5.049286790092806e-05,-6.228027656778177e-06
0.0008040900710582943,-2.973860230358527e-05,3.130376344549104e-05
0.001105319122877662,-2.328405831964614e-05,6.426900702615732e-05
0.0013479555911299931,-1.3408433029134002e-05,9.78229768125584e-05
0.0015629267932729398,-1.0434888154528045e-05,0.00012689797818371602
0.0016558990409840403,-6.7316075096449725e-06,0.00014880140417549058
0.0017065541825145953,-1.6370625057979806e-06,0.00015773609470128128
0.0016977903253038498,-6.734761078770958e-06,0.00016025552569811356
0.0016459128605890605,-1.3549622799034987e-05,0.0001586609012164223
0.0015671419431504865,-3.0565828394713004e-05,0.0001490497251770454
0.0014279394611495528,-4.1592776527527105e-05,0.00013632660765350364
0.0012581608791286977,-4.885066958349255e-05,0.00012182397642641917
0.0011128826417819923,-5.816685180753018e-05,0.00010738838105721066
0.0009323037180576802,-5.859979172338181e-05,9.455335690012813e-05
0.0007100912016183618,-5.895812721719515e-05,8.202071491912189e-05
0.0005053249474290017,-5.5064010621959306e-05,7.460334139387144e-05
0.00023753002978954798,-4.531822225462131e-05,7.927693004299886e-05
-4.9647621417004274e-05,-4.495033595316741e-05,0.0001104877082658383
-0.00027826350392731167,-4.269481359622785e-05,0.00014353458422339602
-0.0003454060426515369,-3.727310837621e-05,0.00017361494326023427
-0.0004245903478816348,-2.7291433078462455e-05,0.00019357667202006838
-0.0005497983737087458,-1.853018882463368e-05,0.00020401228099023092
-0.0006628302009093149,-2.2983748487310712e-05,0.00020244216424107958
-0.0007687273945332197,-2.0203652521907665e-05,0.00017928325754395
-0.0009047195437120113,-1.860740620358872e-05,0.00014969575622669025
-0.0010898253700951286,-1.6418919705491805e-05,0.0001191843494152826
-0.0012827648410556247,-1.857226643995645e-05,0.00010091113137981784
-0.001312849705190662,-2.249251260339322e-05,8.846660911641362e-05
-0.001195935024139388,-2.409038075640646e-05,7.421986745407963e-05
-0.0010466483308094478,-2.2624962483484127e-05,5.588501967799774e-05
-0.0007888632002794209,-2.3111873474561265e-05,4.528128045093609e-05
-0.00043887078767536537,-2.3990457683031064e-05,3.5997174524567406e-05
8.048051202170268e-05,-2.5197103126731512e-05,2.680190913143525e-05
0.0005343570602670061,-2.596125784693977e-05,1.5214256504302909e-05
0.0009034422583312957,-2.511862431993274e-05,8.388492454092111e-07
0.0012660467828434453,-2.8122984064363917e-05,-1.451578611289757e-05
0.0014569230991327532,-2.2041011683503e-05,-3.1430446800505884e-05
0.0015237144204192474,-1.8999079422914757e-05,-4.150078242613128e-05
0.0013771381742399178,-5.542892356544603e-06,-4.894500633521717e-05
0.0010720624895578957,1.6003459568293647e-05,-5.2797225519522215e-05
0.000768079741646947,4.00845598236475e-05,-5.050485146206011e-05
0.0004408260002009362,6.547880603898375e-05,-4.471021423018011e-05
0.00016604890150118313,8.420145265059787e-05,-4.850675040333604e-05
-0.00011093443378287493,9.408834068660756e-05,-5.151615585720878e-05
-0.00036962689104648943,9.861127885845603e-05,-6.407763046456202e-05
-0.0005458665043919942,9.183759373348829e-05,-7.265389539531006e-05
-0.0006671828463773608,8.842336017447642e-05,-8.284316560739602e-05
-0.0007392287337482296,8.139369538256221e-05,-9.465445129915128e-05
-0.0007582696204798793,7.957931221907513e-05,-9.273095466343217e-05
-0.0007183101221755855,9.984720743851672e-05,-8.639192139120634e-05
-0.0006536880956716445,0.00012079843592007226,-7.046117410366871e-05
-0.00047666243283030825,0.00013958739757296114,-6.186670857669932e-05
-0.0002515179986226601,0.00015259361545387276,-5.573707226079823e-05
-1.3378699381793845e-05,0.00016308472723175916,-5.287255075816169e-05
0.0001641704558455208,0.00016724671695384418,-7.214013402136418e-05
0.0003363210620572512,0.00015283166483215252,-0.00010597360008696257
0.0005274563313772728,0.00013252115138614564,-0.00014697089276242305
0.00065223871554804,0.00010312890101524168,-0.00018261576862580784
0.0006583748392056183,6.69881940685111e-05,-0.0002092944182750421
0.0006609650903419243,3.3249064754637334e-05,-0.0002214895383144064
0.000667675343689122,4.474463318011125e-06,-0.00021411487311791724
0.0005777858444260888,-1.0619687274183488e-05,-0.00019197700182796887
0.00045184222620046194,-2.090509627804702e-05,-0.00016340693183971775
0.00029285785895017075,-2.2012359260581295e-05,-0.00013921473586768696
0.00014795786962942375,-1.944913871153596e-05,-0.0001232540747303506
-0.0001285830650323714,-3.650589018907174e-05,-0.00011582354631928703
-0.000321024632565781,-5.666602346438762e-05,-0.00010929854260272468
-0.00036282076921700213,-8.659744396180391e-05,-0.00011506272537066333
-0.00033737345294743354,-0.00012316190042552946,-0.00012424501608237438
-0.0001300751534876373,-0.00015997666013235475,-0.00013507383000532796
5.602107363722788e-05,-0.00019518138792257611,-0.00014773027207784433
0.0002935925503276934,-0.00020817841540366443,-0.0001613088176054223
0.0004427471541843931,-0.00021996474285189985,-0.00017602300823380164
0.0005035537231052558,-0.00022843675981546542,-0.00018744036815713136
0.0004976909687920482,-0.00022748708515900055,-0.00019730617233534837
0.00034290174878496264,-0.00021738548415257,-0.00020650432099198526
0.00017837358815810033,-0.00020220663771848728,-0.00021254872085475573
6.093721676186738e-05,-0.00018487399403992674,-0.00022058221158081893
-7.75156169356775e-05,-0.00017260940538919498,-0.00023221581620706783
-0.00020706565620070866,-0.000162365533388445,-0.00024621279523657797
-0.00037767966359125905,-0.00015974050289535723,-0.00026348732315049797
-0.0005184547851979982,-0.00016337909033365986,-0.00027488053574813826
-0.0006372875567657992,-0.00017350871304957358,-0.000292765594542187
-0.0006640090949501202,-0.00018708365449897902,-0.0003143141990161247
-0.0005720668928406655,-0.00020265930996499196,-0.0003327299583534635
-0.00048594509712444114,-0.00021985400754304015,-0.00035318400422163355
-0.0002451167949985746,-0.00023753642702902924,-0.0003715402962633254
-4.099224696601893e-05,-0.00025633710193646224,-0.0003941304793919612
0.00026069127913797306,-0.0002696164188570899,-0.0004109080048968876
0.0005378962652431758,-0.0002870736735459577,-0.00041906980081266
0.0007656480699589329,-0.0002977126426388477,-0.00042504860644882353
0.000966007437300367,-0.000310597222874186,-0.00043048013278210325
0.0011707102597109903,-0.00032230642304469564,-0.00043807446655625884
0.001337825067395986,-0.0003332957986594193,-0.00044879443731163496
0.0014555324654872276,-0.00034308735882148186,-0.00046121859653191436
0.0015446451056532861,-0.0003477873473444315,-0.0004775477746860765
0.001645474965065963,-0.0003546028397791008,-0.0004949956587697624
0.0008919863347705532,-0.00022804815006113603,-0.00029987445895653445
0.00017056553253671301,-0.00010090824811631313,-0.0001006210030685615
-0.00046982135143868055,3.079856175696325e-05,9.543833834904589e-05
-0.0009527939849129342,0.00016379977638372484,0.0002989211802238304
-0.001407447572457671,0.0002956133570798711,0.000495309393794499
-0.0018266399119349643,0.00042581744647065607,0.0006845620727684765
-0.0013855574815570682,0.00042083057330777215,0.0006652197048788436
-0.0010158340012097547,0.00041169504551300814,0.0006460422235757548
-0.0006497481171785213,0.00038688222724389895,0.0006287826525867341
-0.00048678142351416296,0.00035942897104582265,0.0005989167362146956
-0.00033652216963184575,0.00032786805660773747,0.0005773483093098422
-0.00020208806353984402,0.0003016518102141403,0.0005654537694084345
-6.065808089048731e-05,0.00028079509868870133,0.0005583622045693152
0.00013283713895804826,0.0002515230443321016,0.0005511756722650328
0.00030974170476602043,0.00023065452944992257,0.0005552207096431688
0.0005715774589968009,0.00020832717373869445,0.0005604224759798989
0.0008941702260692218,0.00017842809984456838,0.0005528939166357756
0.001049801538991105,0.00015212310302089742,0.0005312382710343133
0.001248865240152177,0.0001242248332436415,0.0005043828413395992
0.0013793148573822413,0.00011459068120518967,0.00047382746477061985
0.0015647812718073046,0.00010491057716568789,0.00043888862786376946
0.0017079606741050464,9.9410212935446e-05,0.00041466669824633185
0.0017022208188652561,0.00010368167653854703,0.000395771236077161
0.0017846403250588198,0.00010236898108664448,0.0003808398997248693
0.0019114999198075813,0.00010243268317196916,0.00036099187963766226
0.0020428972294506327,9.588542427196639e-05,0.0003428568780083312
0.002047374215623364,9.223097888970461e-05,0.00031685687631765317
0.002023869677809188,8.044780500962851e-05,0.0002816965687950168
0.0019521175228267812,7.534623205189504e-05,0.0002488612522397206
0.0019131406764947144,7.097538598859453e-05,0.00022493701949673501
0.001788703923441961,6.68509687845999e-05,0.0001869698557251227
0.0016221344128173375,6.500919462603487e-05,0.00014333059338819684
0.0015236230570322567,6.413808887953141e-05,0.00010143029887295592
0.00144511199364539,6.61508765565669e-05,6.793831923305587e-05
0.0013714406669210711,7.452405167020886e-05,4.1778116258425086e-05
0.0011796905418280804,8.142856484057322e-05,1.1816331400230127e-05
0.0009674115862395228,9.31979531194643e-05,-5.411884106756018e-06
0.0006663297610226867,9.565395233755987e-05,-2.0692996265509595e-05
0.00037460376289171957,0.00010186639235600014,-3.140269539761066e-05
4.917981204217496e-05,0.0001116830008628119,-4.570890435269157e-05
-0.00020777908351798008,0.00011271520891329466,-7.210175058737663e-05
-0.00037129990423471684,0.00011160983807204265,-9.929812609751326e-05
-0.0004796071450766338,0.0001054900228684367,-0.0001234171592778081
-0.0005605190652797564,0.00010209561174130718,-0.00014019594620961158
-0.0007429380512247768,9.405338112543388e-05,-0.00015701708106332575
-0.000888520112379794,7.47909336758023e-05,-0.00017277771585048606
-0.0010261825716867336,5.7288537904681664e-05,-0.00017997794365279084
-0.00115251128568878,4.2442798415271185e-05,-0.0001830871820768763
-0.0013379576974785357,2.783348646847948e-05,-0.0001735064604995074
-0.001495901567299514,1.9155856833087014e-05,-0.00016469917414533276
-0.001569121483205172,1.7488880477490287e-05,-0.00015396586829975154
-0.001655889129769549,2.486895179027156e-05,-0.00013326728571355786
-0.0017693711063599688,2.507591599213814e-05,-0.00010803549333127392
-0.0018578400581267113,1.706693299958156e-05,-8.519338512484413e-05
-0.0019096090400827074,1.0637707666012862e-05,-7.196912050192706e-05
-0.0019161922496651394,1.0449935181623404e-05,-6.718939174433494e-05
-0.0019648727166470255,1.9263798943903792e-07,-7.271858860189053e-05
-0.0020539352601235857,-1.7797569790851843e-05,-8.914291442464113e-05
-0.0020845322637969075,-3.378706355646858e-05,-0.0001068969649689012
-0.0021119872319328406,-4.4020213422963576e-05,-0.00012158772908722568
-0.002059965243674632,-5.115547771209994e-05,-0.00013046223150463493
-0.0018990245826753188,-6.34401590993686e-05,-0.00013779310714794437
-0.0016742920946279253,-7.12902022348494e-05,-0.0001363997704433062
-0.0013006493592374643,-7.092871317287676e-05,-0.00012440215390036388
-0.000892902671699572,-6.42149458506692e-05,-0.00011139449438818325
-0.0005401985505160957,-5.772589281653631e-05,-9.689690887150703e-05
-0.0002091502551394404,-5.6578534462157514e-05,-8.831055252187587e-05
1.0325143968857498e-05,-5.9281232844213546e-05,-7.196894029850177e-05
0.00017021990141966622,-6.239731901876021e-05,-5.658294945912723e-05
0.00023726765288312025,-7.14025593784034e-05,-4.919963447405729e-05
0.0002094099289886888,-7.970392323034914e-05,-4.521532581747859e-05
0.00028739533754074044,-8.864636252469413e-05,-3.2706470754344463e-05
0.0002665581781405959,-8.449824850405669e-05,-1.4372343793897075e-05
0.00023794864349393875,-7.747471064600249e-05,1.4560476687070478e-07
0.00027872194269792575,-6.544880208698902e-05,1.5975257655385182e-05
0.0002955756944605514,-4.2862313139688425e-05,3.6948651219151886e-05
0.00025132265757314156,-2.413777438775874e-05,5.9248886240923326e-05
0.0001449383727557012,-7.209958814337317e-06,7.112324330456474e-05
0.00011581832040545349,-3.076621516140654e-06,7.586026373339556e-05
0.0001260575071036125,-5.8641959444767315e-06,8.007090851177658e-05
9.325102317563004e-05,-1.3077758836019897e-05,8.341134856561397e-05
-7.3787017640424e-05,-2.9233220411632206e-05,8.312464413007157e-05
-8.442914030243989e-05,-4.5569336416518195e-05,8.596555891922796e-05
-1.1875258082701212e-05,-5.9771297404416673e-05,8.568894590256867e-05
3.437353721117049e-05,-6.585894620815766e-05,8.854463741223246e-05
8.00327052812143e-05,-6.722732467024263e-05,9.866975503091388e-05
0.00019569659092682435,-6.84491072442011e-05,0.00010875360595113632
0.00045432597682048604,-6.618673713776705e-05,0.00011215837880277024
0.0007115685133492535,-6.542564588448879e-05,0.00011036877367937774
0.0009156719775230498,-6.343709563340528e-05,0.00011348558066859222
0.0010778778502407178,-7.594973497910392e-05,0.00011443813858662845
0.0012079436331222065,-8.406125400098597e-05,0.0001145516670558302
0.0011791609225092086,-8.211703391432474e-05,0.00011123285147199471
0.001095448813601246,-7.736956165879357e-05,0.00011286369694367009
0.001054218517257914,-7.271426370711678e-05,0.00012002842457355865
0.0009460148936697411,-6.233091387432278e-05,0.0001245346037814215
0.0009012369227650837,-5.035978730643194e-05,0.00012453640582050775
0.0008721543528307305,-3.762135245017355e-05,0.0001210242314325654
0.0009610399360593521,-3.561694425513088e-05,0.00011245769751384989
0.0011573632762190483,-3.3613707385735964e-05,0.00010415552274310697
0.0012863508990509376,-2.7036084124954517e-05,9.062725410845262e-05
0.001290050665719844,-2.759723912928599e-05,8.055763929846174e-05
0.0012594300553330417,-1.8203118710658804e-05,7.647403828194616e-05
0.0011843720594501542,-1.3358426440864964e-05,6.908747962555425e-05
0.0011146216096036775,-6.765215540778932e-06,7.103422256693625e-05
0.0010024246671615608,-5.035798526734567e-06,7.258235443826841e-05
0.0008751188875089384,-1.0472100264801232e-05,7.749777674727341e-05
0.0009324895082985914,-1.6230967017677067e-05,8.150010579664818e-05
0.0010322898627189317,-2.5161783159673954e-05,7.901040844618936e-05
0.0012262673082549867,-3.724031126290653e-05,7.804037074949966e-05
0.0014677146108432375,-5.130874114629564e-05,8.197638475663298e-05
0.0017038199484470794,-6.917190516375442e-05,9.534823638989901e-05
0.0019581538135131802,-8.2501679180731e-05,0.00010697913795703518
0.00219631239457372,-9.421448343037988e-05,0.00011812168690279187
0.0023983930697528263,-0.000109843749560901,0.00013199432522761597
0.0025686675729582565,-0.00011996427197725405,0.00014455453840712547
0.002681769139074848,-0.00012603326967572715,0.0001535285133869302
0.002661091099735204,-0.00011850110625343122,0.0001470680226744897
0.002599586240627328,-0.00010577384404047437,0.0001397333627486158
0.002562344938242199,-9.003050882854228e-05,0.00013127386995742476
0.002539314877346988,-7.307854593039816e-05,0.00012794207969216812
0.002488072451244867,-5.374032273211387e-05,0.00012590613581166574
0.0024795776384866188,-3.719787323976651e-05,0.00010938305824118749
0.002581369606623039,-2.5541112410050687e-05,9.594903625509509e-05
0.002777822152992471,-2.0166800820418425e-05,8.170013214682427e-05
0.0030090682919096997,-1.8241592247809033e-05,6.837459292145875e-05
0.0032786420024370614,-1.1154532506888746e-05,5.022535518286279e-05
0.003577856194234686,-6.719804152904896e-06,3.334186977289696e-05
0.0038194512640367115,-7.062191599596401e-07,1.9482566538277948e-05
0.004083490011181442,2.595206745484997e-06,4.319307743499852e-06
0.00420842358644073,1.0667891823366256e-05,-9.788857103916532e-06
0.004119013069194861,2.593512827970553e-05,-1.7560331330402575e-05
0.003903036329181842,4.3170461841807455e-05,-3.206548541220782e-05
0.0036611426614843712,6.165623039982287e-05,-5.1808987225644484e-05
0.0033415079417484814,7.904906218773156e-05,-5.946242788472976e-05
0.002941108528410067,0.00010384061639465612,-6.387057616146614e-05
0.0025282847756479478,0.00012895671785986807,-7.319865184347315e-05
0.002199287561282053,0.0001500972505592781,-8.96047770709691e-05
0.001978071031905167,0.00015142688517859155,-0.00010542902384222478
0.0016770070468757681,0.0001521695956322232,-0.00012410625906499818
0.0014349113705856102,0.00015282049218885097,-0.0001500662554860276
0.0010342742682786668,0.00015063993466176697,-0.00016478981671668886
0.0005685556194717829,0.00013357615523131136,-0.00018973724731375917
1.651947349230573e-05,0.00011813655372549526,-0.0002158071681248511
-0.000709431294865336,0.00013110051378669216,-0.00024565668594072135
-0.0015008769975134752,0.00014188725009432296,-0.00029075541982206824
-0.0024129405717555757,0.00014337654538538002,-0.00031359878945634177
-0.0031895111616747815,0.00012899933608740007,-0.00033423159761153653
-0.003892719294388389,0.00012793523194364032,-0.0003393551554470891
-0.004574939797429931,0.00011669077768102997,-0.0003345098324628901
-0.005213504279168629,9.039677329626858e-05,-0.0003211096888154863
-0.005710196738043525,6.0114135360154726e-05,-0.00028898131223481765
-0.006016856775583963,4.059390620255704e-05,-0.00026566166364152595
-0.006162214482860656,3.1379899600994316e-05,-0.0002506841950876591
-0.006180969566176789,2.6451232303980222e-05,-0.00022867462898741987
-0.006018130096478689,2.6678919955822232e-05,-0.00019425369814586376
-0.005637863966032722,2.7039237693113815e-05,-0.00015091015043991167
-0.005205126058345545,2.9196548913568245e-05,-9.757501622075419e-05
-0.004728329013188243,2.769211649321984e-05,-5.090634579464798e-05
-0.004213149073816509,2.035466340603718e-05,-6.531851466056846e-06
-0.003601024471535064,2.526909458798627e-06,2.653791038837984e-05
-0.0029429846314154005,-1.7699538858758698e-05,3.6602299285503904e-05
-0.002289316718582489,-3.45189617755826e-05,4.153195770377377e-05
-0.001604857001638946,-4.7009165731515456e-05,3.413404620355509e-05
-0.0009871822988455788,-5.296986087462033e-05,2.7037976267203464e-05
-0.00042825497478497565,-5.178123582178257e-05,2.2911666920959902e-05
2.05093684715019e-05,-4.487573152919575e-05,2.350291598044878e-05
0.00037566372234606424,-3.3729218097449255e-05,2.6823894011187793e-05
0.0005948183584776726,-2.166573702131204e-05,3.19429467495081e-05
0.0006663126416508838,-1.2886562477849872e-05,4.451054828782128e-05
0.0006473973570507974,-9.66866108961225e-06,6.010071016775366e-05
0.0005153965444815042,-1.5482219735281488e-06,6.917776179102646e-05
0.00035777397824942464,9.118138115406417e-06,6.9981651475262e-05
0.00018002515707975114,2.149129962809435e-05,8.125178479606003e-05
-1.5144517588280904e-05,3.0504198656029233e-05,9.070618342526464e-05
-1.9239831859340576e-05,4.103306315349796e-05,9.490655658230394e-05
8.970731310029457e-05,5.220192187184756e-05,9.794155099216838e-05
0.00023757057567140574,5.383844376543631e-05,0.00010551065621718284
0.00043342754808754156,4.5281550756557354e-05,0.00011579471369197335
0.000589203744960661,3.0240920728608334e-05,0.00011245841832851771
0.0008201824612620204,1.6469106496219437e-05,9.990451228532679e-05
0.0009319108735127064,5.031473632927523e-06,8.80415080703456e-05
0.0009939786896640003,-3.9416904300134e-06,7.503222672347067e-05
0.0010748774549822764,-5.395395447424955e-06,5.265108014140897e-05
0.0010977959696507975,4.692510060983273e-06,3.77046066607926e-05
0.0011002310652145255,2.8287330038698508e-05,2.8202453993385154e-05
0.0010983252285628187,4.7947217233698864e-05,1.9462023292694485e-05
0.001072877732088858,6.573064101651515e-05,1.537121411790045e-05
0.0010079808946073438,8.319158988575154e-05,6.594202021341806e-06
0.0009790412263797818,9.59728231729672e-05,2.846140702989908e-06
0.0009984235995390632,9.57699135592864e-05,-2.5026720318799525e-06
0.0011359454997895404,8.23791405151312e-05,-9.914098828629058e-06
0.0012429006706243114,6.964746330617135e-05,-1.1674871324707874e-05
0.0014453968960428125,5.83992247609965e-05,-1.6548486324011377e-05
0.0016473182709570264,4.3282098168760254e-05,-2.244980427559862e-05
0.001840354871830556,2.493166275434046e-05,-2.3528685140832454e-05
0.0018986439919970982,-6.86486830273293e-07,-2.3605632214166223e-05
0.0018487610242599603,-1.9338944013918794e-05,-2.2647307770087236e-05
0.001847085668421404,-3.9323378468173254e-05,-2.4553144421794223e-05
0.001789010089899635,-6.187229489931678e-05,-3.021028606220839e-05
0.001738840057320104,-8.785409599377338e-05,-4.293052032224543e-05
0.0016829382786781209,-0.0001112011355831097,-7.006364425803732e-05
0.00165489890923316,-0.00012194246050383316,-9.496404163253933e-05
0.001640367805786579,-0.00013444717087561885,-0.00011502091806192853
0.0016458510506459846,-0.0001428532332037936,-0.00012803524511824504
0.0015876320298023152,-0.00014928642302335207,-0.0001409960516112826
0.0015503357652226382,-0.00014658084137779133,-0.0001365578092813222
0.0015021805926658171,-0.00013993609215693793,-0.00012138716212484038
0.0015049946570701712,-0.00013097887614015217,-0.00010980005010895056
0.001494325864228712,-0.00011714363012999323,-9.942985516196967e-05
0.0013171582006977108,-0.00010546965982531184,-8.955251793360055e-05
0.0011007188772256293,-8.581130436377649e-05,-7.545120083567869e-05
0.000902326615868702,-6.596571702909419e-05,-6.642712916540892e-05
0.0007110461021886602,-4.724063766688866e-05,-5.7955202305005996e-05
0.0005601227968629355,-2.5812229207255185e-05,-4.626879793014601e-05
0.0004862319817653422,-1.6650932252107553e-05,-4.087961951781035e-05
0.0004939908417172577,-1.5469605466511053e-06,-3.4400928208181835e-05
0.000610291387809264,8.87864710489095e-07,-2.6097492010561878e-05
0.0006906248534318603,-1.5157852680419358e-06,-2.5588055530423036e-05
0.0007418027665327593,-7.771203920864775e-06,-2.612398198658006e-05
0.0007289354858745825,-1.6419190011113075e-05,-3.0394995079667846e-05
0.0005914400756001234,-1.2362259175007645e-05,-2.2974558087487397e-05
0.0004485140400133778,-8.784490559491677e-06,-1.8665521968229308e-05
0.0002492322921093338,-1.547591259122938e-06,-1.0585538631806991e-05
9.64739702742759e-06,1.6313140004844362e-05,3.7711274205895147e-06
-0.0002108320983196739,4.059435671257028e-05,1.711288499869813e-05
-0.0005179159754793031,6.322454510988794e-05,4.2477848076707466e-05
-0.0008629987322994296,0.00010784925258131618,6.344980000920516e-05
-0.0012038439939573398,0.00015481390794498407,7.5577343579451e-05
-0.0014476613384929874,0.0002034454495620527,8.075946768869077e-05
-0.0016273419456791435,0.00023812317098935242,8.341693488629806e-05
-0.0018725223526608469,0.0002663067936730777,9.075970398951023e-05
-0.002019864105088491,0.0002980159258349504,8.525303262198304e-05
-0.001981119000997419,0.00029367670555833895,7.351382849851197e-05
-0.0019586264883930593,0.000276249995433675,6.36755955197649e-05
-0.0020260256374996025,0.0002562458286507009,5.130982236878072e-05
-0.0021215247045682727,0.0002358835966805014,3.986417043131324e-05
-0.0021665843341990305,0.00022198681102998796,2.5314325777268465e-05
-0.00224718251937935,0.0002035793410743793,7.792197677428165e-06
-0.002355631040094331,0.00018758930669752005,-1.676401021129606e-05
-0.0024532298432319907,0.00016231309404958456,-4.25960618485002e-05
-0.002523819863138544,0.00012766591718648876,-6.791453231518374e-05
-0.0025403906947481917,9.73341736811657e-05,-9.196941290014069e-05
-0.0024686707962668793,6.391310428583546e-05,-0.00011796166582226434
-0.002293077033768561,2.8574665188646113e-05,-0.00014337222049253968
-0.002144610448474633,-4.190552042810775e-06,-0.0001637543649958508
-0.002006949611003354,-2.2749933902575385e-05,-0.00017132347022086528
-0.0017478725985745629,-3.417477228883814e-05,-0.0001787967069616568
-0.00146878141804611,-4.653865329757339e-05,-0.00018758543231372623
-0.001264972947687653,-6.538041469907335e-05,-0.00019406754749616862
-0.001112358608782838,-8.010857113109631e-05,-0.00019616223785475013
-0.0009943727956368178,-9.694033801590281e-05,-0.00019700090689576738
-0.0008486667541849317,-0.00011381841730860986,-0.00019642028986833752
-0.0008228118166498821,-0.00012956959139032555,-0.00019487918594895845
-0.0008227382934503288,-0.000144828538466868,-0.0001937494875785918
-0.0008009718224378108,-0.00015415706465888825,-0.00019365524092906312
-0.0007377980948330557,-0.00016394835451532958,-0.00020337706217510372
-0.0008730227555181211,-0.00016924049311779454,-0.00021266711483094043
-0.0010964808414473369,-0.0001721164575683872,-0.0002363794277638472
-0.00130127250439023,-0.00017422385230373528,-0.0002589582580457562
-0.001545179230070357,-0.00017834223267703257,-0.00027526941580712226
-0.0018426567966966256,-0.00018341587402651217,-0.00029250682171393176
-0.0021579246348532714,-0.0001982193556971746,-0.00029766389747842235
-0.0021817883190800584,-0.00021631011726427936,-0.0003008491819567818
-0.0020693848629470555,-0.00023987087870181413,-0.0002913178362542434
-0.0019102121826001653,-0.00026077885824239916,-0.00027699396731515035
-0.0016269191872834044,-0.00028244108128773466,-0.00027099750169400804
-0.001323043300296555,-0.00030724227640449575,-0.0002663395907863812
-0.0009746849768345302,-0.00032191916482137263,-0.00026326296927120724
-0.0006878014184242574,-0.00033386848671486955,-0.00026515024491887557
-0.0005386733045426092,-0.0003394119196826567,-0.00024853003743536395
-0.00045088137890166214,-0.00034403991673951815,-0.0002287200403752939
-0.00041872633214155006,-0.00035174192235560344,-0.00020742029751415352
-0.00041045262959127024,-0.0003503111032360375,-0.00018236204150699417
-0.0005582773285230352,-0.00034874116669031147,-0.0001596347231956765
-0.0007378925216860097,-0.0003430401453945216,-0.00013148957404910143
-0.0009242460800068943,-0.0003291419181137058,-0.00012883372868522175
-0.0011208301752373571,-0.000316227604231994,-0.0001294251579491026
-0.001371627538385434,-0.000289801149966175,-0.0001255168953448645
-0.0015928383012372444,-0.0002617260100422099,-0.00011685142947499605
-0.0017853825850034047,-0.00023560229836125114,-0.00010764589245762212
-0.0019225516459795233,-0.0002133490965630147,-0.00010116684074114306
-0.0019943277680832274,-0.0002025467726160793,-9.465625333823755e-05
-0.002110068240394354,-0.00018940900587510325,-9.759249600037434e-05
-0.0022332010378879152,-0.00018574239672731745,-0.00010295320219418025
-0.0023083747246869083,-0.00018676532427674758,-0.00010725196669016328
-0.002311524328789426,-0.00018478884768899213,-0.00011180806238409916
-0.0022582592938950744,-0.00018688020427502235,-0.00011480467335804266
-0.002099369533702129,-0.00018983807140716106,-0.00011768739545690054
-0.00178406583496525,-0.00020279977891925845,-0.00012085754280596864
-0.0014347356717645489,-0.00021231589739224288,-0.00012596073759839642
-0.0010645196941054742,-0.0002236062135508071,-0.0001369506538253293
-0.0007658736852660673,-0.0002395047944394465,-0.00015337209638554186
-0.000541762900740171,-0.0002528573642530394,-0.00017135897039424817
-0.0003566707698560428,-0.0002699497060051874,-0.00019209557600661215
-0.00033103027498482593,-0.00027964377584736605,-0.00022229054473610392
-0.00035252121420413637,-0.0002893317187566514,-0.0002539612033617931
-0.0004982595121580833,-0.0003038107432702557,-0.0002894984974835108
-0.0006044965703739587,-0.00031512493644985474,-0.0003264819280594444
-0.0007826258020184274,-0.0003258667118786581,-0.00036787981404843293
-0.0010962435128866249,-0.00015520549106114742,-0.00021313312216571676
-0.00135260341061777,2.7241426486326667e-06,-4.7548786368040996e-05
-0.0014860191843617033,0.0001532949691087828,0.00011634397523833545
-0.0014719778751677711,0.00030976468076606204,0.00027957394682818137
-0.001390568592146871,0.0004580382676617671,0.00044730343008175425
-0.0011493097828576774,0.0006084149243970799,0.0006240577058221981
-0.0007833974352006019,0.0005818634086109403,0.0006057394368057099
-0.00036721161791561027,0.0005669250443076623,0.0005911286832276492
-5.379897910703031e-05,0.0005540386620332376,0.0005811017767464196
0.00018625985228163186,0.0005372377100192231,0.0005756637630714626
0.0003662304075736856,0.0005290795181816232,0.0005665703128929881
0.0004908376335346339,0.0005145835544996413,0.00054480474289953
0.0006327147021078777,0.0004922730478555615,0.0005263496991091437
0.0007494760296237269,0.0004617261408717376,0.0005002907707369615
0.0009436518796752638,0.00043276376695072197,0.0004729194172204312
0.0012590460407810406,0.00039675767233098583,0.00044502385050228797
0.0016029205303227723,0.0003577624451992725,0.0004190281737054171
0.0019122686697281848,0.00032765748832769834,0.00039509493076700017
0.002240364143682143,0.00031287004480635375,0.00036505962271021866
0.0025619782232683265,0.0003085579452191989,0.0003428977842980062
0.0028034664321462525,0.00031117027133648685,0.0003034637606231692
0.0029501470163939936,0.00032501407703496395,0.0002613756936235388
0.0030721737222287352,0.0003431510609068066,0.00022360819579525206
0.0031526194548946226,0.00035338979709591907,0.000193708941696734
0.0031740051550254948,0.0003551685899838272,0.00016782174766058998
0.0031633635729737546,0.0003525191418594288,0.00013989860974297687
0.0030914436481432332,0.00034238924883789383,0.0001300070364043762
0.002936050564801121,0.0003357138649506405,0.00012608021279803287
0.002790789807235003,0.0003236393914355937,0.00013026292596912667
0.002666167083736946,0.0003238878926405738,0.00013641022227097325
0.0025497308440915935,0.0003169961739482053,0.00014890700367174603
0.0023677987691376502,0.0003055011461359073,0.00014377785951454262
0.002224355548301245,0.0002902728337257648,0.0001329755355676072
0.002071617949916162,0.0002688028882620511,0.00011797554152371193
0.0018694064466906924,0.0002513510396914087,9.4957914699646e-05
0.0017272738489595486,0.0002436803895573579,7.09949381138889e-05
0.0016282045818404917,0.00024728050345851024,4.69746566813217e-05
0.001619953584984632,0.00026707887736623226,4.097729004111956e-05
0.0016367927402301757,0.0002960304390517636,4.5302724717512714e-05
0.001699416125065117,0.00032226993175102364,5.234491368276819e-05
0.0017050336218437,0.0003465401560188733,5.899047382048537e-05
0.0015834071489137025,0.0003524873358673811,6.343105880174128e-05
0.001406306160833727,0.0003587177061754548,6.512713809027296e-05
0.0011591204446369545,0.0003558188558270165,6.545655085554331e-05
0.0009140342843028465,0.0003481108133802339,5.741891544006504e-05
0.0006031394546573713,0.00033114632630874846,4.7431834024092e-05
0.0003232442042402911,0.00030739211596297753,3.268178281644586e-05
0.00012631934339879771,0.0002722832566598792,1.4438298427354575e-05
-9.37959598272184e-05,0.00023310449183538745,-1.0450385691636645e-05
-0.00025010357806022924,0.00019455004349027604,-3.200097241001933e-05
-0.0004055211691329474,0.0001603092264657844,-4.2886910974424356e-05
-0.0004190961105833195,0.0001380762976075102,-4.69281640699959e-05
-0.0003077825277544598,0.00012015015232132795,-4.690257511303751e-05
-0.00016237274154672345,0.00011336844812121794,-4.624807447823719e-05
-3.845713822865276e-05,0.00011013225603552966,-4.035432509177896e-05
0.00010723394629833389,0.00010756074610572082,-3.191321310023457e-05
0.00021768417214924443,0.00010487273434197619,-2.4846155994621902e-05
0.00024132314208795663,9.785090842081228e-05,-2.137074320597281e-05
0.00013246934275879034,9.291449235524388e-05,-1.3992113523493865e-05
2.7137629033024214e-05,8.697722372219388e-05,-3.2070891527533246e-06
-3.281207025059994e-05,4.643647767606517e-05,1.1536294510756961e-05
-9.304054499682022e-05,7.332407377741109e-06,2.3848907505312823e-05
-6.688232426566768e-05,-4.0963594542130535e-05,3.860130136425445e-05
2.846176743288289e-05,-8.122772757256665e-05,4.700384971645263e-05
0.00017305144560364062,-0.00012754923514816106,5.322701186818123e-05
0.0002857475529026208,-0.0001729005248217071,6.493504071304314e-05
0.000430491665833222,-0.0001866623377354755,7.477795899244778e-05
0.0005653043803589993,-0.00021098346961162065,8.671754987391221e-05
0.000714800470642364,-0.00022836377722715477,9.164738849657405e-05
0.0008129717816320486,-0.00024945340231826926,0.00010074426254979581
0.0008830157836635623,-0.0002694898256023376,0.00011288081631547299
0.000915373019220754,-0.0002887452451019495,0.00012194669529447755
0.0008575162082566251,-0.0002986250150828434,0.0001313634313053291
0.0007999895308734011,-0.00029110519562949676,0.00013872331978034418
0.000627480499066628,-0.00028153537638884145,0.0001455499848573483
0.00030890898245447123,-0.0002763632535972555,0.00014651876112909432
-4.9629781229566866e-05,-0.00026505230408897844,0.0001423782156726192
-0.00038602076240723207,-0.0002521241145048524,0.00013582383871750065
-0.0006280611160940579,-0.0002391187976439672,0.0001267903964439823
-0.0009278633132808162,-0.00023538488233268418,0.00011542421443360268
-0.001301955657448919,-0.00022547736094889504,9.756420398526988e-05
-0.0015187525054989168,-0.00021256142523152228,8.682350977798493e-05
-0.0016020447392736782,-0.00019691576054386607,7.082032051531255e-05
-0.0016247288086440252,-0.00018263955554174657,4.7186396287008564e-05
-0.0016356349300481298,-0.00017497268969122692,2.3769257371899616e-05
-0.0015614179458556215,-0.0001642371312965462,5.461800591862381e-06
-0.0013021769478612794,-0.00016385572970049523,-4.506900020597271e-07
-0.0010307777716312583,-0.0001552969445513007,-1.1271755156459016e-05
-0.0007868604139200392,-0.00015423788611601582,-1.186138238028691e-05
-0.0005571724982930256,-0.00015715196369690815,-4.451217012348226e-06
-0.0003053768054312213,-0.00016659591049844572,-2.038827143040431e-06
-0.00010028546337136453,-0.0001795542842389585,-2.827579698951308e-06
3.312508445583516e-06,-0.0001835331867782784,-1.1673249489046887e-05
0.00012637736906124231,-0.0001881792042269692,-1.931425607698688e-05
0.00025132157635065653,-0.0001895673150187405,-2.760958309823529e-05
0.00037030842226951717,-0.00018163672073078673,-4.097350575855504e-05
0.00039523206594968205,-0.0001679439259174058,-4.40477846234002e-05
0.00044557185062080634,-0.00014835125478370668,-4.4412517355728124e-05
0.0005246943459058951,-0.00012775232496526714,-4.321776536999705e-05
0.0005110053353741121,-0.00010160590758988798,-4.241279446327645e-05
0.0004482021070277277,-7.111837779758179e-05,-3.831027203393832e-05
0.0003488850595193252,-4.689014104285892e-05,-3.0024676025689142e-05
0.0003193265710328044,-2.037781961047078e-05,-2.788889917304064e-05
0.00022618601286137946,4.426619177612299e-06,-2.7760774185790083e-05
0.0001776579983948921,1.9822971742457904e-05,-1.9223433303172187e-05
0.00022501018228750428,2.4570804405806342e-05,-8.427056084738122e-06
0.0002296744003324164,2.8425276138244208e-05,-4.685121700246226e-06
0.00024839686673867184,3.65348129185814e-05,-8.92910419930647e-07
0.00028459623006225226,3.579021032366752e-05,-6.725210266296945e-07
0.000404328038983844,3.1859692535988985e-05,9.905809442065399e-07
0.00043512993451335854,2.779897741731904e-05,-2.616741113290923e-06
0.00045094120660319305,2.4689558787874923e-05,-5.617136370765625e-06
0.0005238502707476191,1.9457698397920754e-05,-1.1887511948487837e-05
0.0006315651813065953,1.182975659263119e-05,-1.6881503166487598e-05
0.0007262252189264307,1.1016045795133821e-05,-1.2202147992284117e-05
0.0008403420539251271,8.299021200650242e-06,-5.817162720941709e-06
0.0010202740455788014,9.381145736239363e-06,-3.6190353120415535e-06
0.0012096415144498243,8.347766361075548e-06,2.452575346248375e-07
0.001448067878535017,1.085440287894529e-05,8.663844035174153e-06
0.0017321024129797618,1.0185395829258839e-05,1.4911694123834664e-05
0.001972691944912681,1.5883173453726755e-06,6.023316004977795e-06
0.0021954398471949804,-3.9194352494730336e-07,-7.739217724425111e-06
0.002429786394545255,-1.0160347483542981e-05,-1.8900868287396327e-05
0.0026746474801825045,-2.2612798719893487e-05,-2.874036269205373e-05
0.0028445141819190283,-4.079375234834115e-05,-3.8320363453788115e-05
0.002895973753746028,-5.699165194709349e-05,-3.988453347347142e-05
0.0028046269453864438,-5.2883993707084515e-05,-1.9099453006303396e-05
0.0026646108426892426,-5.3289722831283446e-05,3.796716376581217e-06
0.0025566569817329268,-4.49062760943664e-05,2.7630486753569385e-05
0.0023577015831281896,-3.710155424456365e-05,5.521556211733135e-05
0.0021065650762028096,-2.376204921555454e-05,8.245698860945814e-05
0.0016937159146881242,-8.641408648308437e-06,0.00010564905282674178
0.0014968117772966062,-1.7577090291488152e-06,0.00012000571887913828
0.0012079493996482492,2.201686435878031e-05,0.00013964956792578752
0.0008267559398333869,4.644620868713103e-05,0.0001550197008202362
0.00036580674815985334,6.817339524563493e-05,0.00015845438752360225
-6.1025877089745247e-05,8.746296338665658e-05,0.00015543380942642794
-0.000363594384642655,9.803859080300575e-05,0.0001371441928347948
-0.0007440021553685365,0.00010004750409528075,0.00010999214748811376
-0.0009815251572051647,8.175167046759161e-05,7.175684028499767e-05
-0.0011445906026182175,5.114223272409085e-05,3.3232305789685006e-05
-0.001130943940008345,2.5891609033113746e-05,-1.046984771956848e-07
-0.0010648242387294206,-2.8209121538487693e-06,-2.1757460816119904e-05
-0.0008927675187594017,-2.342335594923156e-05,-3.295190849142789e-05
-0.0007885121630451152,-3.856715272091127e-05,-3.4542208079312124e-05
-0.0007571510947528141,-5.201982581130487e-05,-2.6957965725973002e-05
-0.0007934344331016813,-5.9183472217741674e-05,-9.802913009756117e-06
-0.0010165813068628148,-7.052848026813262e-05,-1.8950244162226842e-06
-0.001274247142398564,-7.159150318844061e-05,-6.667364813077756e-06
-0.0016141254298238142,-6.328446291361479e-05,-8.167021829605884e-06
-0.0019607269452776833,-5.936863174521436e-05,-7.947893864148662e-06
-0.0022933743702351957,-4.927414879389958e-05,-1.2485608757471227e-05
-0.002557589897424439,-3.483422853185071e-05,-1.4462625956469234e-05
-0.002755714555961105,-6.855407603088482e-06,-1.1831648733913444e-05
-0.0027957760496834815,1.1135340789411626e-05,-5.644527365843597e-06
-0.002732306787651178,1.8932764380673314e-05,3.166182863078304e-07
-0.002502555260041036,2.6298689686385708e-05,-4.685482107096792e-06
-0.0022112887819041344,2.934296459826945e-05,-5.994122969846866e-06
-0.0018974499608270016,2.787880775415753e-05,-1.4785010767853123e-05
-0.0015244446066995378,1.8423057594913207e-05,-2.3250089880694924e-05
-0.0012463968068639028,1.2456595930599027e-06,-2.9499922212833673e-05
-0.0009763597920599105,-1.8785447675945638e-05,-3.549927109554738e-05
-0.0007189745340268104,-3.1250152779049456e-05,-4.110018911453659e-05
-0.0004911124445122068,-4.38844297703214e-05,-5.3350631756266084e-05
-0.0002995774828977169,-5.355696524469413e-05,-6.535599706872939e-05
-7.130669089418047e-05,-6.17930952768835e-05,-7.285590398799769e-05
0.00013671548771055424,-5.3992788423083785e-05,-8.11133881855344e-05
0.0003172612539127791,-4.871101154705656e-05,-9.339230304772701e-05
0.00045935186413079615,-4.891824605357772e-05,-9.68970890749323e-05
0.000602621188186193,-4.895194418594098e-05,-9.627448453437567e-05
0.0006811547770611551,-4.977926038023138e-05,-9.082782107180462e-05
0.0007499259988101521,-5.025680076612654e-05,-8.340756428401616e-05
0.0008058845416867364,-5.455502465183371e-05,-7.239584338268938e-05
0.0008481594801516964,-4.837646296918196e-05,-6.101344301956664e-05
0.0008917810825055768,-3.6379927649691395e-05,-4.985773918703015e-05
0.0008405422604796951,-2.563076386015101e-05,-3.838739931166407e-05
0.0007416670729823131,-4.682328538937494e-06,-2.809937735088377e-05
0.0006391744720056504,1.7488970577752892e-05,-2.0991233751204105e-05
0.0004950542250444162,3.439732412904261e-05,-1.1989507367537464e-05
0.00031334019683247854,4.5164328106987085e-05,7.62262576992627e-08
-2.824119783518996e-05,3.907046226815679e-05,-2.554570761431245e-06
-0.0003109712361085332,3.191348340682253e-05,-5.495678928617609e-06
-0.0005088136953078559,1.8343227259041406e-05,-1.1887692152879809e-05
-0.0007912777525956321,4.579071693010824e-06,-1.6232408648946082e-05
-0.0010113198930289456,4.0798167329843847e-07,-2.2052634835851102e-05
-0.0012072302058059017,-4.469778016386826e-06,-2.442213617200564e-05
-0.0012244647284501732,2.468343185111485e-06,-1.1140746906670432e-05
-0.0012362012295145314,7.997540043633757e-06,1.7894249190005203e-06
-0.0012858452468533634,1.04104705232174e-05,1.5148301869878723e-05
-0.0012090841437280575,1.0653115101892166e-05,2.5830069394692593e-05
-0.0011099031501788851,1.0170979515602e-05,3.4462738151257576e-05
-0.0009376355916232056,8.35524482400858e-06,3.799022987288324e-05
-0.0008273480899119354,6.612672923184421e-06,3.715912939699502e-05
-0.0007553086898808106,-2.9508391801855926e-06,3.633091218364482e-05
-0.0006604752960902426,-1.1795427745862722e-05,3.2321735385742235e-05
-0.0006382601173181764,-1.889744441264907e-05,2.5543004550366254e-05
-0.0006675059520043792,-2.572050541148064e-05,1.609905774882869e-05
-0.0008739879277107281,-2.8125777225672655e-05,4.5032959453248004e-06
-0.0010839597325184162,-2.9380717319785168e-05,-1.1198412161297783e-05
-0.0012293203230576474,-2.1705742291927272e-05,-2.418354618248334e-05
-0.0014169960375339458,-1.3884711987185432e-05,-3.6219005549137376e-05
-0.0015302354596488533,-1.1906613564735663e-05,-4.345094924226055e-05
-0.00161306583077922,-1.7624213620119226e-05,-4.7958389877967114e-05
-0.0015922937249925064,-2.3215130320487936e-05,-5.139704106635625e-05
-0.0014971893045078967,-2.8746940134960284e-05,-5.496940356364673e-05
-0.0013444032312680103,-3.4991276246677556e-05,-5.953270741392768e-05
-0.0011049713293137119,-4.360691573460231e-05,-6.418701424434868e-05
-0.0008993114438878198,-5.368202676308131e-05,-6.783326034804293e-05
-0.0007038756080307956,-6.48532281336931e-05,-7.24599959770606e-05
-0.0004869931631198498,-7.802559402705888e-05,-7.69677970215511e-05
-0.000378203876792872,-8.955269813799252e-05,-9.055733498900535e-05
-0.0003312164256325877,-9.957491931759784e-05,-0.00010403064142814507
-0.0002941859618340858,-0.00010534090412462276,-0.0001162947795678969
-0.000205400031374185,-9.963231426563723e-05,-0.0001301331791471818
-4.9582027190397334e-05,-9.015142565944775e-05,-0.00014002024738855016
0.00012330399121642365,-8.054106053790138e-05,-0.00014450894681485946
0.00032866437772781067,-6.887150522922301e-05,-0.00013704417965922344
0.0004882904511339397,-5.576212060554739e-05,-0.000136982369715181
0.000591752008584807,-4.990675465307672e-05,-0.0001331825898707031
0.000602454319356171,-5.1183949932563045e-05,-0.00013121097878993057
0.0005156591015923239,-5.093562893100821e-05,-0.0001341113608718339
0.00039027249368064676,-4.668795224577931e-05,-0.00014045129516311952
0.00022342763146720765,-4.5273261376760525e-05,-0.00014501640105248675
0.00013962506019324757,-4.5140000577872424e-05,-0.0001353207093746471
0.00017928289713516605,-4.41206771085482e-05,-0.00013161968127886354
0.00027839000707890126,-3.963657288070052e-05,-0.00012695221956359612
0.0004257061705495872,-3.800969189694832e-05,-0.0001202999918798097
0.000530498533944449,-3.772794306865149e-05,-0.0001165162501856163
0.000728082941131151,-4.050668750498151e-05,-0.00010714528596948933
0.0009197353957008324,-4.176288902693775e-05,-0.0001085393434907287
0.001063348188425406,-3.928121075162119e-05,-0.00010242989001259381
0.0011356665441225524,-3.151721498710149e-05,-8.957197995669894e-05
0.0011665643081382232,-1.1186969212374961e-05,-7.234286342968632e-05
0.0012662752814140844,5.299707166627302e-06,-5.449780990625291e-05
0.0014059064685402252,2.3073850447424276e-05,-3.90161307870474e-05
0.0014868198303755835,4.2968813655970385e-05,-1.808508514325804e-05
0.0016392494602629393,5.5990078563010675e-05,-5.9272673153962e-06
0.0018986632738158045,6.146926883326391e-05,8.453005449513769e-06
0.002124598262617483,5.75074856667136e-05,2.4779660747988487e-05
0.002374934844344617,5.807774096963909e-05,4.4681021195049176e-05
0.0026059784340559822,4.715576162060862e-05,5.6681340798070945e-05
0.002770839611525321,4.16788238984882e-05,6.29713586032835e-05
0.002854375661203438,4.6419358304262275e-05,7.792377881336791e-05
0.002831806922341379,5.261521956117551e-05,8.342612528708806e-05
0.0028655151466822648,5.148173690824432e-05,7.818777755448995e-05
0.002795158851259217,4.626375221877108e-05,6.069195922724255e-05
0.002649581655610216,4.6923388666175624e-05,5.314628051228295e-05
0.0025754153087194152,3.9912915590771846e-05,5.25144855709363e-05
0.002393314202488547,3.160091970773379e-05,4.890662290026293e-05
0.0022236028365299593,2.4960945891667382e-05,5.014426341914726e-05
0.0020399872965610887,2.0871848654730316e-05,6.054347119783381e-05
0.001860349938315903,1.4804652996310174e-05,7.336083537090421e-05
0.0017519567402042543,1.2036991100119036e-05,8.534691886369442e-05
0.001730583654346986,4.499962172773531e-06,9.002681464914043e-05
0.0019070393321919846,-5.100671937706993e-06,9.07460084914879e-05
0.0020762836095923436,-2.5665543215966033e-05,8.495930023255416e-05
0.002291773979226495,-4.850350673298076e-05,7.268975597554354e-05
0.00265484072679279,-7.406930707996336e-05,6.778658753329185e-05
0.0030096054797937003,-9.311361768636018e-05,5.979886860291992e-05
0.0031967178768187634,-0.000116693751045764,5.537846646136361e-05
0.003261948992570598,-0.0001403052398862356,4.724045746249669e-05
0.003415489219213039,-0.0001527994083300916,4.103837916952747e-05
0.003382589569858013,-0.00016602853845902496,3.194745184480705e-05
0.003278176355509136,-0.00017416150174748364,1.910107484099769e-05
0.003082468411734618,-0.0001880310766063444,3.4130622323974386e-06
0.0028238384852306802,-0.00018895894658648202,-8.198557516032306e-06
0.0025348032920238,-0.0001840732579248172,-1.4310173441070708e-05
0.002134732750839413,-0.0001753193119295295,-2.0101927409445995e-05
0.0018869509200771354,-0.00015902923802595603,-1.5045045023952051e-05
0.001546703755228209,-0.0001324533947116685,-1.433179791107262e-05
0.0011960381007818893,-0.00010451701180507962,-6.561765315855593e-06
0.0009778077305522461,-7.651999028106272e-05,-4.236413940698051e-06
0.0007078532491432384,-5.586042184326181e-05,-4.660433762347624e-06
0.00038400446075325333,-4.6520723007940005e-05,-8.754666810922225e-06
2.436609275400596e-05,-4.120903228114734e-05,-2.6457719645657472e-05
-0.00035283657106356713,-4.927766277084282e-05,-4.048875721534812e-05
-0.000653650793460142,-5.688046612918724e-05,-6.200762804291241e-05
-0.000932846312057973,-7.015176397467265e-05,-8.671016151317516e-05
-0.0011136310286575374,-8.673890403829286e-05,-0.00011385553931572035
-0.001186290330171073,-0.00010304762904713418,-0.00013918121793874896
-0.0011684755509062223,-0.00011763639774737574,-0.00015394190117845415
-0.0011222799157678124,-0.00013067334039688327,-0.00016058782172495526
-0.001113239805950158,-0.00014430234302177682,-0.00015519918392386213
-0.0011932943159057663,-0.00014728111380924962,-0.00015359086394414853
-0.0013623812752837437,-0.00013864069628413033,-0.00015943992275836724
-0.0015713895297344862,-0.00011818764153721606,-0.0001564436721912743
-0.0018537220381612313,-9.734606714106845e-05,-0.00015135255106120787
-0.0021894568968684348,-6.800877896471238e-05,-0.00015680930594459536
-0.002504617153286314,-3.34863032150866e-05,-0.00017194733619023232
-0.0026836378537194445,-1.0887290094444744e-05,-0.00018167672600043525
-0.002815795083290126,-3.3806255191777125e-07,-0.0001769885408342257
-0.0028626518866084385,1.40315781789998e-06,-0.0001813896611580423
-0.0029120648825219104,-3.83293736366525e-07,-0.00018587007120455477
-0.002879969122852087,-6.622674240838228e-06,-0.00018699814773926046
-0.0027994057170266156,-1.2582918873929866e-05,-0.00019197483938106536
-0.00274239550407645,-1.9727013155072293e-05,-0.00019429280239645255
-0.0026353329317053706,-1.7745400756645975e-05,-0.0002014528447247168
-0.002573917093334156,-1.4064825804249885e-05,-0.00020135607521853399
0.15967175474054762,0.13280128684772188,0.14031412970624382
0.32185114126575026,0.26561762612882744,0.28083804236358845
0.48352336386252565,0.39850076438988685,0.4214591570150397
0.6451946506603489,0.531386127628738,0.5620796865443655
0.8069924831376928,0.664262693672654,0.702704639719503
0.968865093033418,0.7971273258922125,0.843318532518681
0.9685932410047379,0.7971868472467797,0.8434098742813303
0.9683534040043729,0.797237991822155,0.8434966586868585
0.9685840938537918,0.7972139481142134,0.8434821432611536
0.9688076151912973,0.7971888664316963,0.8434608647823547
0.9689533046539885,0.7971615303981477,0.8434409162084806
0.9690125178598537,0.7971450282242316,0.8434257844853713
0.9691120985456965,0.7971268474508065,0.8434150803725609
0.9692753687027593,0.7971191761699591,0.8434012298993182
0.96942892406653,0.7971121941691032,0.8433985052160573
0.9696137321960377,0.797099422216318,0.8434069549778366
0.9697226546530604,0.7970928700018098,0.8434075874935936
0.9697690715786111,0.7970856203981336,0.8434080902625285
0.9697771158815719,0.7970784194495156,0.843398845801465
0.9697597946808441,0.7970603684229126,0.8434041816395175
0.9696816060022695,0.7970440689784057,0.8434017813233115
0.9695636174860635,0.7970329918434822,0.8433912393940285
0.9694559762789074,0.7970208199697485,0.8433786863890054
0.9694229557127224,0.7970084048207237,0.8433698311684076
0.9693836910807314,0.7969919756293948,0.8433717611523839
0.9693420423508871,0.7969780359552122,0.8433627437482588
0.9693446535056788,0.7969621662970531,0.8433527694613218
0.9693262456753154,0.7969477481814644,0.8433462821202247
0.9692898516917599,0.7969356655086709,0.8433456982595259
0.9693197421158654,0.7969198688330991,0.8433464767404575
0.9693720463034619,0.7969097972360455,0.8433407192252336
0.9694400822932192,0.7969063183993822,0.8433279553816249
0.9694610364049633,0.7969056615560941,0.843310082756902
0.969505507128185,0.7969055318092723,0.8432914154328947
0.9696721993576786,0.7969023205754291,0.8432735428081718
0.9698914390500599,0.7968960684004466,0.8432397924161134
0.9702443341873971,0.7968774254039683,0.8431976733540394
0.9710142356104652,0.7969062778534983,0.8432055879101781
0.9720936967323409,0.7969470589014729,0.8432357864829858
0.973303812903915,0.7970027770523218,0.8432633901193546
0.9745156968759382,0.7970580491984702,0.8433062065705963
0.9758694914344634,0.7971307155279358,0.8433641223082419
0.9771827076744255,0.7972333047182123,0.8434513770459999
0.9781882455444981,0.7973010244500912,0.8434994644618832
0.9789695809062501,0.7973750936670689,0.8435497413553867
0.0,0.0,0.0
0.0,0.0,0.0
0.0,0.0,0.0
