b,g,r
0.0,0.0,0.0
0.0,0.0,0.0
0.9376285249885535,0.9663127839884182,0.9920119357332106
0.9382105357124189,0.9668350024583993,0.9925579664008781
0.9387207132376671,0.9673002683702895,0.9930532315571554
0.9393968463924942,0.9679425948673753,0.9937308559488796
0.9403111173884077,0.968899128151521,0.994673317667837
0.9411706568173537,0.9698975271183413,0.995658422416362
0.942163360528365,0.9710085303351138,0.9967532758548234
0.943127492774997,0.9720584721602175,0.9978037094708186
0.9440768554306588,0.9730721642373439,0.9988359626880472
0.9445909514188175,0.9736813662382476,0.9994570152630159
0.9448072759542288,0.9739176638295463,0.9997766634783283
0.9450363077317095,0.9740755287057472,1.0
0.9450636259225264,0.9740109930493925,0.9999920520246229
0.9448897699102375,0.9737267220498302,0.9997736492760894
0.944650600894701,0.9733957626440114,0.9995186794951326
0.9446862319380078,0.9733670166731867,0.9995398582319157
0.9445959645130674,0.9732108968614397,0.9994090894474191
0.9445139306195054,0.9729803421186172,0.9992659465695215
0.9445068075836884,0.9728135774137007,0.9991812792150562
0.9444993038065361,0.9726877424023425,0.9991005779161681
0.9443247339042434,0.9724301232962599,0.9988560943861579
0.9439244637111547,0.9719000520362356,0.9983652077552378
0.9434982079219232,0.971395649087908,0.9978971656044433
0.9430976839012775,0.9710358326617083,0.9974958959653492
0.9425308076454955,0.9706175407120762,0.9970257597372099
0.9418242310480567,0.9703174689470937,0.9966022801868826
0.9411034877000957,0.9699942512817618,0.9961443276814768
0.9403381024305559,0.9695224334460577,0.9955723431461111
0.9395537752795788,0.9689910771840263,0.9949428825333184
0.9387374341279812,0.9684097644859427,0.9942879757079414
0.9381061332654007,0.9678946849160008,0.9937578092625833
0.9376415653792919,0.9672589579353958,0.9932307680690201
0.9372483706293533,0.9666709029428306,0.9927751000116269
0.9368909814291668,0.9662663176812738,0.9924528976565228
0.9366642023712538,0.9659857747739544,0.9922656205121603
0.9363539140471042,0.9656208024755041,0.9919848237772837
0.936042626276949,0.9653243001605413,0.9917282517098737
0.9358093428878891,0.9651421154315399,0.9915543163764734
0.9355800890112959,0.9649584553298639,0.9913689746672325
0.7799316308072053,0.8044988828053298,0.8264871657410341
0.6242529583103803,0.6440192145415887,0.6615549627025168
0.46856597243225834,0.4835231387940589,0.49659031997341424
0.3126932417173787,0.32283278748862987,0.33143272405747515
0.15674756501682227,0.16204230367975161,0.16614524563825944
0.0006569164698051606,0.0010958490065462307,0.0006996767183479629
-5.99711670581934e-05,0.00025649115987685245,-0.00020962119640980927
-0.0008942369509054495,-0.0007104301933059742,-0.0012141469258848802
-0.001721112474924289,-0.0016767730311823587,-0.0022136130260598987
-0.002528159131208433,-0.002635450805646878,-0.0031841057682222584
-0.0033304840661260117,-0.003550890289668852,-0.004104055274376442
-0.003862442992335497,-0.004095475550414018,-0.004693443742961689
-0.0041564310043319,-0.004325396429420779,-0.00497985623626615
-0.004396732372801857,-0.004451604250003279,-0.00519380748402127
-0.004636717866979581,-0.00452220515108528,-0.00532745227575301
-0.004739599992693463,-0.004464921912093774,-0.005342463355440236
-0.00474071066452472,-0.004273966207115341,-0.005216693739932107
-0.004752258231944305,-0.004165212908994915,-0.005139271752063965
-0.004953165387307076,-0.0041798323186608855,-0.005173445930955797
-0.00504097773571232,-0.004111483432070315,-0.005090487858308578
-0.005066295624365127,-0.0040286595002371655,-0.005001170347745747
-0.004940870967557428,-0.0038195556537446206,-0.0047781729678936305
-0.00470440398161852,-0.0035525324129465296,-0.004488776414372391
-0.004226615557713079,-0.0030664554616922743,-0.0039712003446463005
-0.0033498927082381623,-0.0022944223779284064,-0.0031379511049112034
-0.0024220292466488073,-0.0014533864490767561,-0.0022571400453482863
-0.0014058122904072614,-0.0005161969399999297,-0.00127833180665843
-0.00039732473581292297,0.000466455023487032,-0.00028141596835444836
0.0006267020008030802,0.0014798107791008438,0.0007350523476762802
0.0014427193459953425,0.0023027842332384745,0.0015563762752319854
0.0020003888884945913,0.0028870894524569675,0.0021194163857898747
0.0021913375427070284,0.003100392382325971,0.002314377454364127
0.002247740846167269,0.0031688620132751255,0.0023602467379422666
0.002130014215101357,0.0030541368930690187,0.0022344186010804356
0.0017940748536303332,0.0026959594173027296,0.0018795015755379283
0.0013238027219866259,0.0022164913247933534,0.0013862640431395448
0.0006830504845617423,0.0015837949394573768,0.0007404624000229865
0.00018059583900253824,0.001046245285035889,0.00019080305590468688
-0.0003952350651967104,0.0003627759850055566,-0.0004574184099219078
-0.0010079878315915921,-0.00036343910949922454,-0.0011488684713886303
-0.0015389852096610414,-0.0010065716853470243,-0.0017462544469777357
-0.00190941462431613,-0.001494038871282868,-0.0021697334684972337
-0.002077457280474643,-0.001775510893222305,-0.002386846279488262
-0.0022626505711016917,-0.0020378444936367036,-0.002564233138855671
-0.002280583311731215,-0.0020689119289923133,-0.002561154950919794
-0.0021742826223792562,-0.001992544911908693,-0.0024531017938104966
-0.0021271628855446937,-0.0020915193271293245,-0.0023092416767958547
-0.002146550375359801,-0.0022639718845506554,-0.002236954232612574
-0.0021168622459990056,-0.002392480898714123,-0.0021394587154492427
-0.0018962795770517912,-0.0023434900649931542,-0.0018949117285497112
-0.0016119207954589476,-0.0022118297112031005,-0.0015670294530519514
-0.0012370746050427534,-0.001975644579612692,-0.0011268395885571155
-0.0005938461387845921,-0.0013425364295731757,-0.0004982120237043039
0.00014617488331975127,-0.0006135364589765882,0.00023202429861671426
0.0008768888950022598,9.41194343870467e-05,0.0009411594425759019
0.001611812918748,0.0008116025083948551,0.0016504252019656895
0.0021899245693076793,0.001367004524718616,0.002218431519183874
0.0026047473660582806,0.0017553368905185254,0.0026199660907894845
0.002826539593823679,0.0019485657622844875,0.002808183102189084
0.0029931969508351936,0.0021066206566148714,0.0029416581467423025
0.0029805584537283833,0.0021027048377408684,0.0029497850352924035
0.0028886797526086866,0.0019909107207412248,0.0028845795562182095
0.0026464397761717627,0.0016973219583399247,0.00263889334188802
0.002342005173784615,0.0013115354476814771,0.0023051755003472194
0.0020551696345506424,0.0009288727786649731,0.0019815501245021684
0.0015791976641005745,0.0003010274962418034,0.001435250117594577
0.0011064711609971372,-0.0003552438285224594,0.0008211266823925407
0.00045938010914394183,-0.0011535143970261728,4.0153933087722e-05
-0.00018428497576692635,-0.0019137312792068984,-0.0007232990741754693
-0.0008937980407545741,-0.002698979436423157,-0.0015140760891352103
-0.0016949819855502325,-0.0035629902845613556,-0.0023895164043717786
-0.002346706271661988,-0.004246651189143758,-0.003109027631066478
-0.0030275461649793356,-0.00494508150842662,-0.0038395213063279177
-0.003568421665472813,-0.005498744453447585,-0.004429075115363057
-0.003941318495504866,-0.0058941161272251874,-0.004861116586470605
-0.004265988794792823,-0.006238036426401254,-0.005212101752650038
-0.004520415138000738,-0.00652147913729053,-0.005417080196264686
-0.004736672162333163,-0.0067660691338587604,-0.005581123129441312
-0.0047193771634402885,-0.006791108517275048,-0.005513005860496837
-0.004665696689335628,-0.0068207487014306616,-0.005391413999798524
-0.004528003348069771,-0.006780038110409101,-0.0051980922341978205
-0.004287311014653173,-0.0066780882721602965,-0.004970036282657572
-0.004072058548131375,-0.006609814299952643,-0.004861975898513625
-0.003918742473275167,-0.006629894527475576,-0.004831620414201077
-0.003902057718134298,-0.006789249582958827,-0.004942144864608117
-0.0038956781855354556,-0.006879041081230078,-0.0050597054501485775
-0.003946857048051712,-0.006971585903418117,-0.005203662515189284
-0.004024944099372491,-0.007040205715671359,-0.005349533686786042
-0.0041895553242452905,-0.007116627552456557,-0.005531872475012155
-0.004496627970532138,-0.00719356673915902,-0.005736370585229838
-0.004786279761763337,-0.007100421191753685,-0.0058311429204993374
-0.005103452805858034,-0.007059458007058584,-0.005960945221318329
-0.005438665057139246,-0.007044930081074345,-0.00610938569185176
-0.005827088377814927,-0.007074089931832992,-0.006281638888880412
-0.006224942097307447,-0.007070463546882283,-0.00641802889614913
-0.006430651881571884,-0.006958743110382146,-0.006455049116521947
-0.006655894048881727,-0.006968289494291632,-0.006570778970807333
-0.006769902635045596,-0.006851637223613185,-0.006546708010028425
-0.006844759025627299,-0.006721811302729383,-0.006496082632602681
-0.006826159987659834,-0.006488109803277446,-0.006357988984126964
-0.006617835955829163,-0.006138062388906477,-0.006085883375308223
-0.006333128690152419,-0.0057082168787044255,-0.005722452197921099
-0.005942578506072519,-0.005202782932195325,-0.005271002789777906
-0.005525847067108308,-0.004686119231521625,-0.004824473582049743
-0.004996668610261999,-0.004070523596489086,-0.004269034901744882
-0.004361292581508742,-0.0033963334563567467,-0.003635958656419584
-0.0036633919509819826,-0.002678840687547467,-0.0029471522794655464
-0.002964771261032353,-0.0019849119294787533,-0.0022626653777092433
-0.0022838962901574607,-0.0013047125982050204,-0.001582593489020892
-0.001633103762701984,-0.0006434579686747418,-0.0009026166093977435
-0.0010923245051571208,-7.253827516461167e-05,-0.00032184117964309387
-0.0006492108644923631,0.00041330036021674973,0.0001694367687608795
-0.0003735049585545442,0.0007308231222778127,0.0004769268203642517
-0.00015898259879723185,0.0009644003519886407,0.0007085589201509145
-5.150125876663287e-05,0.0010650019076107445,0.0008090221045008629
3.593898548895476e-05,0.0011406028590262305,0.0008715544621159217
0.0001288478034440054,0.001226984607115717,0.000940855378313711
0.00023499743014577262,0.001330264043463838,0.0010200134409099751
0.00036228736695918324,0.0014606305817905162,0.001139826922287025
0.0004918825515429935,0.001604256260853988,0.0012664703039065278
0.0007502661368710029,0.0019095004673858214,0.0015328966974071548
0.0009568923443772601,0.0021468315246336864,0.0017336270548263524
0.0011495691412066655,0.0023544206904339356,0.001913030080580066
0.0013283483504851774,0.002540324874489288,0.0020741060516456344
0.0015085139165245,0.002692436854873536,0.0022068961143335277
0.001613113608706827,0.0027858600261692857,0.0022659586139914555
0.001641150625064033,0.002786339125682841,0.002251795212583026
0.0016651725830230024,0.00277599864931178,0.0022359408613456338
0.0016754159350983995,0.002767172853633961,0.0022001418335514437
0.0017389493251425056,0.0027983471080876518,0.002203797479179004
0.0017617920425767911,0.0027997755931720037,0.002174816012787483
0.0018210551365117553,0.002829303846426294,0.002182524262137647
0.001858058787586703,0.0028293625440486496,0.0021606363946175457
0.0018329071207298935,0.00276942610201164,0.0020924685364305225
0.0017786387890536797,0.0026661429640113944,0.0020088457528698624
0.0016674681359909848,0.002513926808567378,0.0018883331880954956
0.0016748806057302564,0.002521242682819783,0.001921896418158817
0.0016769789135350742,0.0025279419676316364,0.0019557459093011583
0.0016550956290122553,0.0025200125005142987,0.001971216522627505
0.0017701672943404554,0.002635382765759412,0.0021007523045124547
0.0018166535198973993,0.0026905604699123966,0.0021614930626222537
0.0018687146094421446,0.0027514545821705557,0.0022384384187436627
0.0018096124492284432,0.0026508588434300913,0.002171804102046864
0.001728559845950561,0.002535157192205852,0.002089427893820904
0.0016791368003055151,0.0024810415096024395,0.0020499963116561116
0.0015518547956051504,0.0023427479719271374,0.0019273545919793575
0.0015107104062387934,0.002273843132479232,0.0018759226069826563
0.0014019779078762121,0.0021477692764412045,0.0017581596644748426
0.001374635744457293,0.002101588349028917,0.0017071616540934814
0.0013020874219520115,0.0020012799289822305,0.0015968596553370261
0.001193743244497758,0.001836162282879887,0.0014439754398647515
0.0010443703102296508,0.001655975212005269,0.0012668937023733464
0.000846501858514692,0.0014368508176252181,0.0010488362650784026
0.0006262024540689873,0.0011944534328486114,0.0008135152047969508
0.000325210740461234,0.000868189131756812,0.0005144564585431777
0.00011206451385540886,0.0005925565537802472,0.0002902817771262934
1.693787762131377e-05,0.00042316067945855215,0.0001781215491301221
2.984976815856309e-05,0.0003392329502914884,0.00016334596500882425
0.00020484729937714279,0.000426655038826598,0.00032649768142915776
0.0004519868527399059,0.0005783920947570596,0.0005584652213824868
0.0007089869016140704,0.0007651709262698902,0.0008149949841994097
0.0010147697866288643,0.0010376414122017484,0.001145194846308299
0.0012737133790055304,0.0012530800189322286,0.0014188033257874042
0.0014901091271474175,0.0014472119174845244,0.0016599828670983106
0.0015888633822156337,0.00152590427702083,0.0017740044971794166
0.001648908582311586,0.0015709382211590121,0.0018323388290337203
0.0016314498293914287,0.0015669656436235154,0.0018251778953522852
0.0015685497743562875,0.001523850036500415,0.0017712125703225595
0.0014565855576398697,0.0014605665960924815,0.0016836690323523615
0.0012980420452621667,0.001336212421753361,0.0015342215362395895
0.0011174641857123987,0.0011814729736160446,0.0013531005914782315
0.000956455901995098,0.0010517059266241975,0.0011966344108779027
0.0007791864378724011,0.0008818383560931963,0.0010076425203529094
0.0005616042221702345,0.0006719823691939641,0.0007785382962568296
0.00037011001497938524,0.00047478779438984834,0.0005700993369482693
0.00012959588966031532,0.00020641926753972993,0.0003132006428278532
-0.00015194470097349403,-9.30071761322343e-05,6.568775143296744e-05
-0.0003714835040935057,-0.00033645424361862866,-0.00012295583127772377
-0.00042734319353619554,-0.0004213627342628555,-0.000156946513997295
-0.0004851811515006795,-0.0005149662288875394,-0.00021372844356533688
-0.0005912454639406068,-0.0006462458413421673,-0.0003254141550461816
-0.0007117414594152137,-0.0007521897619617638,-0.0004377534724850393
-0.0008077802884320996,-0.0008421030622073021,-0.0005663019709346811
-0.0009349270947055275,-0.0009586088532328402,-0.0007297658599960683
-0.0011087198263746963,-0.0011237559362806883,-0.0009419311488560769
-0.0012997025005299211,-0.0013013190647838172,-0.0011493764790398383
-0.0013339196890904536,-0.0013225513873850443,-0.0011911686574844597
-0.001220483977620984,-0.0012007441258021436,-0.0010918452293739666
-0.0010698285091135823,-0.0010456142415269836,-0.0009644641614170764
-0.000818172764198718,-0.0007875779063975731,-0.0007241026851698622
-0.00047819507680384583,-0.0004397788048668557,-0.0003926023093707992
2.8169218208523378e-05,7.354688716467017e-05,0.00010558697561668922
0.00047055945033559375,0.0005241308138458965,0.000537432611714083
0.000834624844078733,0.0008923434678376439,0.0008842719277950813
0.0011850882536122726,0.001256238761862118,0.0012230744288547004
0.001386315866266449,0.0014487172559126556,0.0013927611472517526
0.0014599760944854535,0.0015166374559626202,0.0014486409313767279
0.0013462033564257633,0.0013712651260225043,0.0012983383536818568
0.0010941302061934274,0.0010670561481311593,0.000995872325014086
0.0008468810134265631,0.0007592059786815527,0.0007010350483181701
0.000579029660223164,0.000425743022313406,0.0003874593047678772
0.00034814758561461836,0.00015184369875799805,0.00011465584643522945
9.628842611480625e-05,-0.00012178135001992154,-0.00015944283751380376
-0.00014936782246297272,-0.0003710493532095121,-0.0004262115456784396
-0.00033855519546081327,-0.000539280088536624,-0.0006075343186002448
-0.00046642241369630906,-0.0006531963096745499,-0.0007373353855367705
-0.0005528944115841168,-0.0007156567494823103,-0.0008210309682508326
-0.0005762139370337887,-0.0007351355467095506,-0.0008383085164987886
-0.0004962274094958553,-0.0007065758923622385,-0.0007930626968566525
-0.00038879507228519464,-0.0006584278013845303,-0.0007129023679498206
-0.00017464076248621706,-0.0004948681981814351,-0.0005305311462025843
7.47650831686228e-05,-0.00027984012227108334,-0.00030468666725283537
0.00033185626318721253,-5.0008259178285834e-05,-6.923181869745665e-05
0.0005183044137993133,0.00013686928305092658,8.241710266514468e-05
0.0006617860809785895,0.00033468714552333786,0.000212396377697307
0.0008097918718211218,0.0005572004903263636,0.0003532459941252859
0.0008725962127145546,0.0007134570869227984,0.00043513358430392717
0.0008051581087537645,0.0007500373395318732,0.0004120370393136366
0.0007359849876796091,0.0007728544979414318,0.0004002874674640045
0.0006792585828905957,0.0007852812958148332,0.0004149869033170825
0.0005549636349797914,0.0006876216720850207,0.000351517498971011
0.00040386009032789417,0.0005480205699535486,0.00025875674709147854
0.00023948788640543934,0.00037607602018437157,0.0001289043858377915
9.642380081039665e-05,0.0002211923838923145,3.795779590978977e-06
-0.00021198602314866872,-4.894800032092222e-05,-0.00025821383815043336
-0.0004435770522256023,-0.0002350667039166498,-0.00043970618198210673
-0.0005473930518252773,-0.00026249735444262715,-0.0004872618323919253
-0.000597365352099914,-0.00021954550134775533,-0.0004723434702698427
-0.0004693537694410243,3.0096192405591437e-06,-0.0002814031007077582
-0.00035956541894781747,0.00020422577440105564,-0.00011398496610000582
-0.00015335185749120386,0.0004493348835778135,0.00010180600263420764
-3.264645428230186e-05,0.0006077909664641612,0.00022934782804370709
7.707015467698803e-06,0.0006756991802125942,0.0002737447355226908
1.2389957627430336e-06,0.0006735159106841888,0.00025462535106328876
-0.00013312761808407484,0.0005206859861056407,9.024592010618428e-05
-0.00026625858528296707,0.00035534077654852405,-8.005403861754787e-05
-0.0003511156053394879,0.00023338967935008096,-0.00020643707072195543
-0.0004662338057198588,9.536759614340992e-05,-0.00035681703056845754
-0.0005758376024260467,-2.9888899907430606e-05,-0.0005006771475840453
-0.0007398109092935433,-0.00018924430792893358,-0.0006881908451272977
-0.000885912817190293,-0.0003193586051203249,-0.0008401570509351415
-0.0010228795770741903,-0.00042121889864825884,-0.0009774301665793985
-0.0010770423235376251,-0.00042841632004119487,-0.0010290648610826513
-0.0010198052670600368,-0.0003207765140571008,-0.0009610693941115166
-0.0009702916190793629,-0.00021757340224585326,-0.0009005563757270356
-0.0007714018639853634,3.5753726625430745e-05,-0.0006861210929237715
-0.000610700288566675,0.0002555197406629086,-0.0005120073751572358
-0.00034433065372659646,0.0005650427042209993,-0.0002365628763492696
-0.00010897398707974792,0.00084788275093117,2.5010475278634024e-05
9.288590296769067e-05,0.0010789453251373034,0.0002404150620644356
0.00026021026239365116,0.0012824617925326642,0.0004292402019865265
0.00043459067536382747,0.0014915822083240238,0.0006193533404894076
0.0005727474281895839,0.001664486014736014,0.0007694699542451953
0.0006652180410702641,0.0017898881090936593,0.0008694464595086865
0.0007382507511628886,0.0018865202600245393,0.000937258077770253
0.0008185524479184405,0.0019957450780865643,0.0010156209902901852
0.0003547148448438075,0.0011107248878055738,0.0005054090925599329
-7.651296792867797e-05,0.0002546036699593398,3.075790675192278e-05
-0.0004193938080052262,-0.0005210233652341142,-0.0003686064392425167
-0.0006047277614044896,-0.0011460328297846776,-0.0006068618518433576
-0.0007630724421954733,-0.001738656542105341,-0.0008249346245537047
-0.0008914622984229667,-0.002291818882777455,-0.001016434119818342
-0.00047114219610390267,-0.0018444853589783946,-0.0006093587041667724
-0.00012880373616054805,-0.001466573848274905,-0.0002713478278000144
0.00017815539280236493,-0.0010868176810548942,6.552822786376925e-05
0.0002785526524962536,-0.000900116231692749,0.00019141753011572347
0.00035865851423976,-0.0007278491094026502,0.0003133490614406784
0.00043485296383978436,-0.0005792871894331845,0.000430547061366191
0.0005277182433182836,-0.000430659697344966,0.0005603832058602617
0.000653557485135542,-0.0002250463322977976,0.0007413839350699423
0.0007818636135219133,-4.617845964262822e-05,0.0009186669719158344
0.0009925133403435216,0.0002156087064472543,0.001180725416207586
0.0012465562981795908,0.0005457484607798323,0.0014894054607528175
0.0013442273794021377,0.000718144259539669,0.0016207504690575448
0.0014819940486283034,0.0009361096843450291,0.0017884865931870448
0.0015907570415520926,0.001079871443181542,0.0018845989264338384
0.0017532137287664313,0.001279506816723138,0.002029741753957374
0.001882692399450689,0.0014311065589952565,0.002144162809902235
0.0018869214485795574,0.001430481861173951,0.0021181167534458055
0.0019673719164861867,0.0015168854666369857,0.0021819052049302733
0.002093855774537437,0.0016503312505133528,0.002284153643096936
0.002211100133245521,0.0017903985845135807,0.002392697357214414
0.002208220953165017,0.0018087328662363751,0.0023682077572346237
0.002159888484669889,0.001805997521772359,0.002307192371810975
0.002077078830637386,0.0017513195406230664,0.002201127706832795
0.002026146921181684,0.001722799546830582,0.0021362916878690007
0.0018972145085513975,0.0016154840760586727,0.0019746197508520714
0.001731575810881557,0.0014691687062372508,0.0017659077506503795
0.0016350229810622244,0.0013895521676166227,0.001625621666652637
0.0015646223217199513,0.001325036782212888,0.0015138895963892208
0.0015133072031610554,0.0012616193772614285,0.0014156965822521269
0.0013455719603776596,0.0010864665529345722,0.0011980161846404846
0.0011632552057937488,0.0008856702708574234,0.0009711357719737422
0.0008731900634354544,0.0005993448545060648,0.0006579603356333088
0.0006000469344780556,0.000318570682079588,0.0003583496907125781
0.00030199274603490963,6.9478242950158475e-06,2.0974617122553166e-05
5.2511809728498654e-05,-0.0002280913816360455,-0.0002631659432787365
-0.00011220834947095113,-0.0003706123820194983,-0.000457675234053532
-0.00023368158104019584,-0.0004590755160757903,-0.0005943352856388169
-0.00032123375619710784,-0.000525746673022342,-0.000694935254839257
-0.0005171540814122821,-0.0006899417264629721,-0.0008943679188733562
-0.0007000336633508702,-0.000815184473521964,-0.0010555551157637442
-0.00087220665792187,-0.0009392157228038014,-0.001199575637692743
-0.0010267358169787875,-0.001055367212863799,-0.001327234682079246
-0.0012379903232090153,-0.0012363742877620253,-0.0014982023482929836
-0.0014100166618584529,-0.0013922959729996453,-0.001642464711478347
-0.0014853042067485282,-0.0014695887555901976,-0.0017018526039632165
-0.0015553701309996943,-0.0015692375765276325,-0.0017638963435309565
-0.0016656753026013681,-0.0016937602641618635,-0.001846669862391157
-0.0017682098255765064,-0.0017889988312991742,-0.0019072648459236062
-0.0018311171076453513,-0.0018438691220770411,-0.001942777788909321
-0.0018371483324289468,-0.0018518176262619064,-0.0019436249383802651
-0.0019045897855036091,-0.0018903772050075326,-0.0019968973494335113
-0.0020270316159798317,-0.0019580855295544893,-0.0021016463415747676
-0.002087284108579619,-0.0019676246864293256,-0.0021511219154222772
-0.0021328461550522396,-0.00197821405481991,-0.002194398279997987
-0.0020943999173618933,-0.0019154962620736194,-0.0021536638926429614
-0.001960111390742266,-0.0017463288325528016,-0.0020044404346033825
-0.0017551659094556472,-0.00152261491865845,-0.0017827818188442032
-0.001386897025609312,-0.0011626305079714975,-0.0014034525754735364
-0.0009733171025412858,-0.0007738468931809284,-0.0009900279455147326
-0.0006151858092898607,-0.00043962827102356976,-0.0006291898633986916
-0.00029072262623803066,-0.00012163451782876,-0.0002957919503414461
-8.267991994895309e-05,8.4775054907607e-05,-6.286021820976839e-05
6.7058067700924e-05,0.00023456486568344267,0.00011045147498498367
0.00011196774209894324,0.0002989880623289403,0.00018442035046251675
6.611273632050407e-05,0.0002731757387481217,0.0001619733572408079
0.00012286346624988757,0.0003460164917504241,0.0002521596983785323
0.00011136525418943824,0.00031525453080907004,0.00025178318750213686
9.6996146697892e-05,0.0002781174439975024,0.00023958553950706349
0.00016002787477839016,0.00030564821539381726,0.00029617198660036685
0.0002224698063264744,0.00030326206008926136,0.0003344787954038003
0.0002164831776341879,0.0002402400268121261,0.0003144835296044546
0.00014662824753992608,0.0001247440816710031,0.0002222734425075229
0.00012433478473617684,9.239287819174237e-05,0.0001979812639614417
0.00012665607299848494,0.00010160963881525614,0.00021128852617301517
7.851714801534253e-05,7.041352698896294e-05,0.00018265395744278541
-0.00011825103174822658,-8.783191427778742e-05,1.852112700798185e-05
-0.00016455658143892912,-9.562618296818799e-05,1.0545477376726273e-05
-0.00012586621099594075,-2.4063733744258406e-05,8.165103699701019e-05
-9.522658083483348e-05,1.6345260783825185e-05,0.00013158244283246226
-5.618279077146313e-05,4.935218545155961e-05,0.00018946482061960168
5.129132222354063e-05,0.00015215269855477898,0.00031441742867974133
0.0003045051100404901,0.00039804779181235766,0.0005721715569195633
0.000554919215157136,0.0006472142639795462,0.0008232022514767607
0.0007585153562032418,0.0008431296536582395,0.0010269589737049313
0.0008898601882383698,0.00100595333321521,0.0011859133694400695
0.0009995330824467815,0.0011379496559797814,0.001311542498446528
0.0009746682054758981,0.0011131905404903302,0.001278629348958694
0.0009017587075086788,0.0010308774366153551,0.0011976301552312709
0.0008700559981841878,0.0009878704112797074,0.0011637633897145557
0.0007839682670152767,0.0008765791901280283,0.0010621278393363202
0.0007641676023436197,0.0008304890413209681,0.0010177101320994917
0.0007620225832179777,0.0008007698885930046,0.0009852209098863282
0.000852516513999473,0.0008909015862987505,0.001062187947111686
0.0010475740017891015,0.0010859310472968301,0.0012444378956934332
0.0011871231045259617,0.0012161636210799825,0.0013553339214413328
0.0011898852418990612,0.001226741355707288,0.001347018424913836
0.0011806140141122222,0.001195456227967976,0.0013117799329742628
0.0011176638986423854,0.001124051715891581,0.0012295553162063463
0.0010643267968155447,0.001053064609130766,0.0011632412805313553
0.0009599298141416603,0.0009428666091644804,0.0010549513939698825
0.0008260898924753258,0.000818805394129287,0.0009360132651258704
0.0008708039081308985,0.000875684624259755,0.0009965151785558696
0.0009499577402671869,0.0009781604496125374,0.0010917445796967233
0.0011158440960759774,0.0011721938137180506,0.0012814272689686808
0.001323806952446602,0.0014106882472682903,0.001523191318736322
0.001518811383225915,0.0016385897870444743,0.0017693182059095953
0.0017404782836345017,0.0018833786151994248,0.002031134985215527
0.0019493073265417073,0.002112041108839555,0.0022762916870582676
0.002115241980092985,0.0023062881111393387,0.002488984020637012
0.00226093088940373,0.002469013961325086,0.0026686475721754196
0.002358279750644553,0.0025757651945911997,0.002788664291867818
0.0023531762303287515,0.0025560084209343466,0.002762055760594964
0.0023196970806429133,0.0024945223969152037,0.0026946830524833274
0.0023165799372296594,0.0024577983086896413,0.0026497381242591095
0.0023301415558050894,0.0024310760838242005,0.002624893341969566
0.002320499810291202,0.0023762343486466793,0.0025728717367100497
0.0023479459725012364,0.002372106830540213,0.0025474822827872526
0.0024728224322941015,0.002475845624257856,0.002632950251672285
0.0026764265054504167,0.0026751311035625412,0.00280978750387185
0.0029064513832473484,0.0029074869644260893,0.0030222935209723123
0.0031840014168938364,0.0031786673365466964,0.0032658846003429027
0.0034852233379937298,0.00347803279109719,0.0035407370111202856
0.003733085594817675,0.0037190468156876604,0.0037621236436010917
0.003997063257470612,0.003984598032925795,0.00400331499494393
0.004135417784268331,0.004111239651854034,0.004110160532197796
0.004080102413919696,0.004021618429569156,0.004014620721108097
0.003903852314215178,0.0038111490260736443,0.0037881563036048704
0.0037047884052149728,0.0035776754426156796,0.0035303871924869516
0.0034279240585103144,0.003262471148510904,0.0032088490194903457
0.0030875880159614167,0.002863424086961707,0.002811337085853983
0.0027354019281542958,0.002455835728121503,0.0023958790151335546
0.002457239359257633,0.002134720248514265,0.0020556085447024633
0.0022447358099249378,0.0019269609829972417,0.0018212211820390978
0.0019522437940925025,0.0016432878883471736,0.001504909388947338
0.0017177852186983436,0.001421947790918539,0.001238613610876365
0.0013221509039065312,0.0010405685374864878,0.0008303497887046001
0.0008327058019862005,0.000606764727549585,0.000347822016519023
0.00026152787419049056,8.924224364166119e-05,-0.0002211268117735617
-0.0004213109111378425,-0.0006079011346732773,-0.0009642981158906793
-0.001173284038329716,-0.0013602010648451027,-0.0017885128572892222
-0.0020609327539785325,-0.0022389134640668404,-0.0027059570502028754
-0.0028501157671363218,-0.0029815256424814054,-0.0034881428837065125
-0.003540842420065357,-0.0036667729692938023,-0.004182451501764548
-0.0042330275238321,-0.004331481592559848,-0.004845472348044958
-0.004912186338391557,-0.004952934122200178,-0.005454952677915473
-0.005460787891419315,-0.00544755395716805,-0.005903985259923304
-0.005803883427304891,-0.005755710834916269,-0.006178081299834024
-0.0059672679952537866,-0.005904675882401614,-0.00630346999773902
-0.005996941494275683,-0.005935183486979112,-0.006297185826743631
-0.005837552947657497,-0.005796458266187583,-0.006100143019665267
-0.005466915359151524,-0.0054490293298437706,-0.005682198496501292
-0.005038626834233963,-0.005052840648616287,-0.005201768150775375
-0.004573740429795647,-0.004608276489224976,-0.004684966783906023
-0.004080887164117105,-0.004121398923551948,-0.004132826980495416
-0.003515923957276307,-0.0035302793157750588,-0.003497587912861304
-0.0029117154847480516,-0.002881612594109043,-0.0028426297931652515
-0.0023049932380612057,-0.0022375858049302768,-0.0021970666421902403
-0.001660149088894307,-0.0015589166660319514,-0.0015351716268859456
-0.001067852003283051,-0.0009499279507834299,-0.0009378246067761088
-0.0005214185606378937,-0.0004040601557980244,-0.0003957800893672708
-7.065113778535154e-05,3.066712814669573e-05,4.33391163893878e-05
0.0002969967498918026,0.00036950241526569137,0.00039411557990913954
0.0005346496745831385,0.0005756946481575541,0.000614254579439542
0.0006212917721867748,0.0006338719242094821,0.0006985418976468797
0.0006077319163026074,0.0006039102251486491,0.0006982390672699908
0.0004953257928606402,0.0004652680271198466,0.0005809197941770979
0.00036254225213089135,0.0003049720469848057,0.00042870169977316517
0.00021446330959670412,0.00011956124024270847,0.00026758642069007544
4.174916877592166e-05,-8.148798804528669e-05,8.637751763045632e-05
5.9276137852198724e-05,-9.253248334825427e-05,8.613884921836454e-05
0.00018839803980314791,8.015310187029098e-06,0.00019454119548806777
0.00033734352141405965,0.00014816126022135359,0.0003461049788574825
0.0005110301390616524,0.0003375862440146371,0.0005477115701548765
0.0006323320370297664,0.0004972027066286859,0.0006958264715946042
0.0008290006247308497,0.0007349164441718926,0.0009074714139626751
0.0009154528804755701,0.0008555398822328264,0.0010027524619608337
0.0009599294616043535,0.0009287019738716939,0.0010483633349847399
0.0010341597442117393,0.0010218418806659342,0.0011016331020006192
0.0010764627506145343,0.0010490821605251442,0.0011066211660335171
0.0011266012726851673,0.0010481276631482672,0.0010974035240629537
0.0011669064446917347,0.0010465244953498586,0.0010859550198989477
0.0011785439093704435,0.0010195616631124096,0.0010569014594305288
0.0011505483162612194,0.0009564425055405562,0.0009837628115868728
0.0011506160036094874,0.0009286115478047193,0.0009514260621769114
0.0011714342700080607,0.0009543191675188632,0.000964667576000133
0.0012811933598244165,0.001102556576007491,0.0010911050752688113
0.0013604934953440149,0.0012154218805512727,0.0011936299034415324
0.0015363409963405046,0.0014221705951073756,0.0013859582161879823
0.0017030219734168299,0.0016289284756589903,0.0015771192747103342
0.0018549095631896317,0.001825735963438189,0.0017654949283320825
0.001860523382657647,0.0018933617940293255,0.0018229683617217026
0.001774094041900287,0.001851754169371723,0.0017758752415266245
0.0017316984942010018,0.0018590354948734892,0.0017722851680187616
0.001629282952891293,0.0018161372275948928,0.0017096160255522656
0.0015261522876951954,0.0017872045877537106,0.0016471829074604946
0.0014226385896655032,0.0017586436995239332,0.00156285451854721
0.0013716151965280688,0.001750411402028761,0.0015086861314717347
0.0013319423019147634,0.001752523282556774,0.0014740631713579559
0.0013204890384838758,0.0017691763092530235,0.0014671211639445795
0.0012506737689453873,0.0017203157384244022,0.001398277137348545
0.0012218408974362899,0.001677771772112292,0.0013685830148374566
0.0011914672574023183,0.001618260314962819,0.0013401359964689194
0.001215911732482948,0.0016100043974047276,0.0013579511655841328
0.0012348927456683038,0.0015863633570488915,0.0013604654685515204
0.001086729899024341,0.001396387708471116,0.0011997667134379067
0.0009160608327294077,0.0011629322807355199,0.0010045537562694568
0.0007623190679063211,0.0009509649421161265,0.0008208000556812421
0.0006126923060822089,0.0007456831393157921,0.0006433190685947349
0.0005086152518899882,0.0005783205294870681,0.0005082325715927551
0.00045566118289768777,0.0004961833422114524,0.00044145459554906783
0.0004952205601870595,0.0004959887410847091,0.00045521980497809897
0.0006146703983334583,0.0006056001173628537,0.000578109006523258
0.0006895105721545978,0.0006850084821325977,0.0006585369119798345
0.0007259549212583395,0.0007376699443582781,0.0007089167464980348
0.0006964271968128465,0.0007304205235697845,0.0006928334216528595
0.0005705571078961279,0.0005881582862797631,0.0005687600440465354
0.00043734417554926744,0.000441624342728535,0.0004363149400600176
0.0002565722436796621,0.00023737230422530195,0.0002526779296400093
5.830665760006216e-05,-1.3496398994929722e-05,3.54933771112812e-05
-0.00010708984627705266,-0.00024667614180286403,-0.00016393840557765935
-0.0003637553363306551,-0.000573407732376286,-0.00043614995214837803
-0.0006142690335088412,-0.0009455272155151782,-0.0007519570866999651
-0.0008557076904514319,-0.0013062616513783564,-0.00107369268113028
-0.000999744252872339,-0.0015691630146829675,-0.001309292246647305
-0.0011093625036478264,-0.0017611114674400958,-0.0014848480222223333
-0.0012959818115914588,-0.002017653745365456,-0.0017195565472526647
-0.0013779344450810013,-0.0021703424783639375,-0.0018718239970147883
-0.0013503373964903742,-0.0021191133791443324,-0.0018495210156782211
-0.0013643185356108994,-0.0020817235223915174,-0.001840771897074582
-0.0014702622799618425,-0.002130191013044929,-0.0019222900271418785
-0.0016048337185456724,-0.0022070427702550904,-0.0020301462916262635
-0.0016777752974948175,-0.0022344908714250406,-0.0020922631828856585
-0.0017944776286079604,-0.002292258321736182,-0.0021922476202603045
-0.0019325804430772974,-0.002374128637539504,-0.0023260135088898257
-0.0020818231144540036,-0.0024425691840804604,-0.002451730243657238
-0.002223677464961263,-0.0024816286620984325,-0.00255036534078948
-0.0023037119377053226,-0.0024710731373800907,-0.002594971832271412
-0.002302680058178706,-0.002372625590610487,-0.0025543719382677644
-0.0022036529384860115,-0.0021735999320121,-0.002411257263432065
-0.0021267974796246713,-0.0020052755977737406,-0.0022889880004413297
-0.0020281033323308753,-0.0018579324026160792,-0.002162472061408154
-0.0017966455627209626,-0.0015933580689343307,-0.0019166143372072344
-0.0015478806316470445,-0.0013073569877951564,-0.0016526745724178623
-0.0013868809851183491,-0.0010948257642072736,-0.001460187264911957
-0.0012677376789990724,-0.00093507745228016,-0.0013125865405452207
-0.0011869924890963075,-0.0008095163631602223,-0.0011980385708209387
-0.0010809847590492207,-0.0006603179353375186,-0.0010542170567463668
-0.001088918280357881,-0.0006287608243198324,-0.0010268667849476396
-0.0011208050146615392,-0.0006234075306355656,-0.0010252419360443363
-0.0011171782771716313,-0.0005974169989572191,-0.0010038618999067893
-0.001073868245190441,-0.0005262515078302229,-0.0009533332942365658
-0.0012144791932082193,-0.0006505572081572565,-0.0010967218913115005
-0.0014354944266177637,-0.0008537408794233177,-0.001342241355038788
-0.0016376582046568487,-0.0010406603737064723,-0.0015687544228237009
-0.0018817446003015557,-0.0012674493026914827,-0.0018264997376091006
-0.0021818103721337237,-0.0015455829634495471,-0.0021376452585704347
-0.002520484372993204,-0.0018439426263069485,-0.0024534157291428134
-0.002580454658704348,-0.0018566200788930278,-0.0024818007007751225
-0.0025189175166357514,-0.0017401054744102308,-0.002363397372492348
-0.0024061414042755333,-0.0015813952114296255,-0.0021934425487386447
-0.0021741098786251154,-0.00129533543266715,-0.0019118497824396786
-0.0019282274767455734,-0.0009874216300587066,-0.001611571430029888
-0.0016179333357142136,-0.0006397570218793667,-0.0012694185814873646
-0.0013636825565664585,-0.00035191128422272603,-0.000993023110686938
-0.0012278812882153968,-0.00021260367020208687,-0.0008288201251351532
-0.0011502197505900047,-0.0001357637230248034,-0.0007221728906601548
-0.0011342123977425046,-0.00011619026927061264,-0.0006682102096677958
-0.001122513238865821,-0.00012567830809599555,-0.0006334393597471523
-0.001263009964482215,-0.000286290867599774,-0.0007537039138462081
-0.0014253386803023754,-0.00048209767549196034,-0.0008988190671155019
-0.0015790228051169185,-0.0006730500313565221,-0.0010800154550666835
-0.0017446720789362263,-0.0008710154310956544,-0.0012739640337172625
-0.0019340655105544897,-0.0011272259705064729,-0.001516234504715394
-0.00209239432712411,-0.0013581344854858494,-0.0017242907837286122
-0.0022268432586571483,-0.0015602704130020391,-0.0019037463376847892
-0.0023150442805080283,-0.0017052341510819427,-0.002032363933635709
-0.0023639600235774256,-0.001781233294477773,-0.0020978854632726805
-0.002451874608080632,-0.0018964909237460025,-0.0022177331408621166
-0.0025666577208316435,-0.0020147870803933895,-0.002346792291001279
-0.0026433118803394426,-0.00208501957897975,-0.002427620327398116
-0.0026440046180472685,-0.0020860856547196987,-0.0024384596454258187
-0.0025972183824194564,-0.002032121387303785,-0.0023923078024217295
-0.0024496497390355913,-0.0018750826845473074,-0.002242899614326478
-0.0021696259443235934,-0.0015622953928456028,-0.0019394145737797262
-0.0018483341955806345,-0.0012154895679004861,-0.0016053503633854857
-0.0015104479414932376,-0.0008439161665469119,-0.0012578123164463685
-0.0012517789764323124,-0.000538215070411433,-0.0009856314407055112
-0.001061060177174708,-0.0003038405753966488,-0.0007883630091322898
-0.0009147839391012082,-0.00010369296374197755,-0.00063182085653334
-0.0009077800612212033,-5.6310585894151345e-05,-0.0006415907497091134
-0.0009474605354074108,-5.4488139289431074e-05,-0.0006980860656589373
-0.0011193091947662263,-0.00017004066682339462,-0.000880388718712747
-0.0012454026166796334,-0.00024642901247365714,-0.001025957412470869
-0.0014417583266612668,-0.00039196967943739343,-0.001246405940605904
-0.0013966771423944088,-0.0008684757453731389,-0.0013575818817433323
-0.0013210968144671685,-0.0012901681029229123,-0.0014008834528045707
-0.0011410814297328794,-0.001587976395919317,-0.001327184445374951
-0.000804991710688169,-0.0017432428887753692,-0.0011100656412336293
-0.00042024800824216657,-0.0018315842208583204,-0.0008221037422166338
0.0001254325889188532,-0.0017702341003435651,-0.0003674918894914268
0.00042790355312215933,-0.0013908955147087336,-3.146051553081963e-05
0.0008023852189625441,-0.0009695699732319928,0.0003580075523181683
0.0010821239864808245,-0.000651676869715372,0.0006537342830791141
0.0012831850247998068,-0.0004070703038473807,0.000883935606282311
0.001443332762590676,-0.00022380398742212831,0.0010507907372667327
0.0015373235205079847,-8.414277751434491e-05,0.001149157376503126
0.0016319543116601115,7.31649119458333e-05,0.0012679777575641741
0.0016864777047766865,0.00021517896229094455,0.0013535530743523023
0.0018189210460728873,0.00043281511634953046,0.0015130944463128888
0.0020550116974049986,0.0007729882862163043,0.001789273634882623
0.002313001497482239,0.0011419768769472568,0.0020960286441859743
0.0025563049056217444,0.0014731278873182057,0.002371163614389308
0.0028490743690749954,0.0018189515406331494,0.0026583395293254828
0.0031548773487711295,0.0021488709585456038,0.0029480292184211935
0.003395551350196704,0.002407703325096505,0.0031398239644898174
0.0035681653701480948,0.002571599249812371,0.0032365236265012574
0.0037266813845402095,0.002707265848542456,0.0033148683832988205
0.003826130845084019,0.002799954858884289,0.0033616495071224434
0.0038500792988130812,0.00283562327124788,0.0033539943147807036
0.0038340123669971214,0.002844859774014481,0.0033119118210685763
0.0037433342349678053,0.0027862925906306703,0.0032302431571579943
0.003575737010918312,0.0026389573275841633,0.003073721628048236
0.0034057915294287734,0.002498426582024982,0.0029341060718465193
0.003281832726762087,0.0023735252682838947,0.002815776247792706
0.0031532732996266163,0.002258597438571237,0.002711757891224732
0.0029512933702961538,0.002091530608354351,0.0025208897920072524
0.002779393064080033,0.0019664620152025102,0.0023605005654982717
0.0025869877217211505,0.0018387291140487926,0.0021859421206992203
0.0023546346811655133,0.001665754623712915,0.0019546597388798697
0.002199962744107811,0.0015468193151749233,0.001782002532991126
0.002108896114900568,0.001463236192170037,0.0016526363220150991
0.0021388274956697924,0.001450593993411102,0.001634315789285099
0.002211014818983681,0.0014525320725702166,0.0016526195764485767
0.0023225840165649733,0.001499629423224325,0.0017182583250606603
0.0023738688168313147,0.001492892945624466,0.001727110032302404
0.0022625021524888666,0.0013697693061271914,0.0016082963494690994
0.0020985262015849487,0.0011948761262379794,0.0014327633126127778
0.0018466462423272919,0.0009542699884302714,0.0011884757938822373
0.0015892848417215903,0.0007213504188687788,0.0009381492945256
0.001248734455901916,0.00042816496025201205,0.0006219806319738229
0.0009254320051160397,0.0001700799748409156,0.00033256274988688724
0.0006630153819370241,-4.3326953788944143e-07,0.000121573352437691
0.00036905663061841874,-0.00018831061031084713,-0.00011991853778292269
0.0001394921678057669,-0.00031502890631421304,-0.0002950250033272075
-8.067521105538252e-05,-0.0004451313934736718,-0.00045947846732207105
-0.00013811638719347778,-0.00044626973955917145,-0.00047714398394104796
-6.390302642315899e-05,-0.00033007471102167684,-0.0003687966336415761
6.49592310910913e-05,-0.00018586240827100933,-0.00022636517797993926
0.00017939474110430608,-6.726483139974347e-05,-9.914997928079278e-05
0.0003167138629928821,7.16777292381802e-05,5.1935057112373895e-05
0.0004189693519245956,0.00017579814563735326,0.00016772431409662193
0.00042882896608989295,0.00019908153591377694,0.00019558365116415142
0.0003114844865114713,8.941639754786657e-05,9.824448472479985e-05
0.00019596174846221045,-1.7323554492274985e-05,7.925589197505228e-06
5.8190496238761824e-05,-6.626097866562133e-05,-3.166498772957929e-05
-7.711704226079213e-05,-0.00011627241068817992,-7.422851991706873e-05
-0.0001453940110431194,-8.018553539330602e-05,-2.731396035777102e-05
-0.00013115393256050916,2.3859966622949384e-05,7.898285107341027e-05
-8.200075496337665e-05,0.00018059390004167652,0.0002308505224344715
-6.197534714391239e-05,0.0003033290423610243,0.00035780642923233485
4.9975296850255946e-05,0.00044508256692333257,0.0005119774094038796
0.0001308789527065157,0.0005798634132414577,0.0006593771869553271
0.00023903769502953734,0.0007307466214722859,0.0008113023220543874
0.00029000662100364644,0.0008313026996569765,0.0009181416898883613
0.00031682984808363785,0.0009018043612156909,0.0010013588781644278
0.0003076818324250408,0.000935918256061613,0.0010440376903680592
0.00022984191043346738,0.0008765631496370655,0.0009987368747556918
0.0001889190913715907,0.0008154984088542804,0.0009494726476033389
3.9000604125071535e-05,0.0006406875466522348,0.0007873755494283287
-0.00026353593219604184,0.00032756005551698214,0.00047596597729977487
-0.0005923845151026113,-2.3261004095969687e-05,0.00011916357707021567
-0.000895091679949296,-0.00035188660654315775,-0.0002185030456726172
-0.0011061064601536198,-0.0005870273434985122,-0.00046640672574359873
-0.0013921715269889377,-0.0008767138597490047,-0.0007711628430359646
-0.001737753867856314,-0.0012373065752271015,-0.0011560045511208985
-0.0019214014544238981,-0.00144839168681706,-0.0013796680520423018
-0.0019687316566065678,-0.0015275486917976215,-0.001478856281725858
-0.0019594410392158395,-0.001541948470119029,-0.0015271859299140203
-0.0019520077697177773,-0.001542061987442017,-0.001563890628532857
-0.0018556881439671495,-0.0014614722669180735,-0.0015127879142848208
-0.0015989599021008145,-0.0012033608411370917,-0.0012670371854496907
-0.0013139253046381574,-0.0009349537113459575,-0.0010149317779648845
-0.0010706592655562567,-0.0006970004240455003,-0.0007777181159626767
-0.0008501594431012236,-0.0004758392397908987,-0.0005455869982507181
-0.0006235799218514539,-0.00022811041870357323,-0.000297789784737674
-0.0004499401917933387,-2.314713423378359e-05,-9.894251050641384e-05
-0.00035834546025354777,8.365398319837254e-05,-8.481718323493056e-06
-0.0002490494294597842,0.0002095847086973629,0.00010263781668974841
-0.00013172768860006905,0.0003380632283005681,0.00021471184907892113
-1.121424248432588e-06,0.00046021826888991926,0.000315214517715044
5.212912943221115e-05,0.00048295522484182693,0.00033569417110173276
0.00014131338052707614,0.0005260678353902536,0.00038417259044191824
0.0002625876042409482,0.0005973064782089048,0.000462625929028825
0.000302487533501175,0.0005736370585232674,0.0004505784623378394
0.00030497469102122685,0.0004980029685092069,0.0003943188182235426
0.00025818422493532975,0.0003859296411974847,0.0003074955159467592
0.00028475521088097976,0.000344234939585834,0.0002821642308394117
0.000246461269725182,0.00024151498147757274,0.00019240128816850585
0.000230710388470108,0.0001806682856167426,0.00015465307625977346
0.0002889047626305932,0.0002193909133140925,0.00021280549836442538
0.0003009628054691547,0.0002192225762885811,0.00022136706660731706
0.0003368027277025296,0.0002319567875370997,0.00024300692345210776
0.0003709698558293116,0.00026876301717833844,0.00027730960254407924
0.00048049944322814137,0.0003887032360642645,0.0003948333478347863
0.0005031045498660383,0.0004232236075408838,0.00042119245827742797
0.0005124085637122539,0.00044211313704450736,0.00043310525534838266
0.0005741447136371685,0.0005187831607746158,0.0004981186010626556
0.0006645499810420064,0.0006307172354680786,0.0005986015275556912
0.0007565261589946738,0.0007202030830564213,0.0006971976692086648
0.0008632109387959304,0.0008288712431855523,0.0008166249449069018
0.0010407157222159019,0.001004066372105549,0.0009949678880737962
0.0012221222229778833,0.0011863357102930763,0.0011846701432192419
0.0014585051285383626,0.0014146456656589281,0.0014264606333586596
0.0017331380842417266,0.0016890260276878073,0.001710652311809403
0.00194861335495047,0.0019321970577054507,0.001935941014170471
0.002161079887765704,0.0021585206361687545,0.002138088399180341
0.0023693037987279285,0.0023962230924878805,0.0023547095955484313
0.002583369092611996,0.0026455006142102892,0.0025832048097768614
0.002713100004432486,0.002823548482840905,0.002739338546785198
0.002729824772666435,0.002880237871110566,0.0027879749032719723
0.002648509704644888,0.0027785515552211297,0.0027207608373853213
0.0025091733587552494,0.0026290474767155167,0.0026085350372694513
0.002418934313145462,0.002507661674638573,0.002528646162832197
0.002238755703190796,0.002296132188555297,0.0023634439075445185
0.002017385287469607,0.0020312306993562896,0.0021459898395051837
0.0016419265618041836,0.0016119608085529737,0.001765669787316684
0.0014607648988722948,0.0014115020818738974,0.0015873846604269868
0.0012251588113971251,0.0011119065960980257,0.0013249350749208867
0.0009012588082372789,0.0007247303795658414,0.0009669567832795698
0.000492987406491666,0.000266297893300488,0.0005180393050173363
0.00011371086759211646,-0.00015378882868216325,9.526112958547253e-05
-0.00016200438060892165,-0.0004427064589594466,-0.00022226956458769068
-0.0005343910877593061,-0.0008020021861289496,-0.0006251571780868834
-0.0008097744211762033,-0.0010093861746529886,-0.0009004058418837497
-0.0010369663014074943,-0.0011387227724139121,-0.0011026797881338421
-0.001078231082594182,-0.0010995354992723064,-0.001125257749324403
-0.0010742622067108094,-0.0010141523158431539,-0.0010832477022274258
-0.0009492473756467344,-0.0008346239627326289,-0.0009257454116405044
-0.000877489267681304,-0.0007286969639500994,-0.0008235893385016778
-0.0008727964544533385,-0.0006988542465575325,-0.0007824745623504245
-0.0009200327051874538,-0.0007453850682048396,-0.0007944897717889398
-0.0011620682094265632,-0.0009675187292881426,-0.0010010056348155362
-0.0014176431223293024,-0.0012207584286671258,-0.0012553806837043997
-0.0017338235949139575,-0.0015582794531022084,-0.0015863906787648811
-0.0020655111685364603,-0.0019003669057946326,-0.0019233164423260536
-0.0023709614336896627,-0.002228554126898797,-0.002251726820157307
-0.0026011654009302264,-0.0024911845645407367,-0.0025129398776693773
-0.0027372374186753054,-0.0026979561940841997,-0.0027033151283795617
-0.0027383056096438236,-0.0027470684772402565,-0.0027354523411272447
-0.002658227245885906,-0.002692003585334701,-0.002666040727911542
-0.002415488251522741,-0.0024668599524735315,-0.00244636637382445
-0.002121296119864886,-0.0021824502291008336,-0.0021620195785340833
-0.0018150611045161654,-0.0018686090242293655,-0.0018642139295740998
-0.0014650343136343872,-0.0014929964156077298,-0.0015079131913072032
-0.0012253169248133131,-0.0012108783672822362,-0.00124236267914652
-0.0009987814708470007,-0.0009346655113070212,-0.0009845272908333438
-0.0007693113120221013,-0.0006741473067322924,-0.000738356336376613
-0.0005692793329237155,-0.00043901344427428065,-0.0005286473579371961
-0.0003989421814119775,-0.0002415304931625752,-0.00035380705878870034
-0.00019231438748405663,-9.82224510769249e-06,-0.00014026845708417035
2.7967037508877946e-05,0.00019701266505540923,5.310301641297713e-05
0.00021433234162785198,0.00037905461605587133,0.00021421089219276373
0.00035143465247693866,0.0005202114695893686,0.0003479305983074211
0.0004901607546145711,0.0006621291007181579,0.0004872634188135889
0.0005643069568444735,0.0007370297348529158,0.0005687898335302924
0.000629831306787465,0.0007992382860636417,0.0006443944865979029
0.0006759198691719158,0.0008493103546703633,0.0007117442797212339
0.0007305169427870519,0.0008817310081891547,0.000766216378519702
0.0007987738168880395,0.0009134619205757393,0.0008211677531003786
0.0007723605918203251,0.0008521250202459267,0.0007833194203222545
0.0007189401146925063,0.0007416404066642597,0.0006971467274297559
0.0006647271315247766,0.000629555621857912,0.0006038994727314742
0.0005582159768228193,0.00047722683043512033,0.0004715613641107454
0.0004011998365163945,0.0002887269070703723,0.0003062006428676807
5.229499868995488e-05,-4.364864499212916e-05,-3.1516569116754145e-05
-0.00024176334469208185,-0.00031783775500908245,-0.00031209543533998257
-0.0004641034169340608,-0.0005046472573517743,-0.0005124385294656101
-0.0007705633517011334,-0.0007753471198048708,-0.0007941499248926985
-0.0009964663520045847,-0.0009875704012097843,-0.0010160237652678127
-0.0011991636967214957,-0.0011777667387468814,-0.001210127108220708
-0.00120209293723575,-0.0012047716993078715,-0.001211760418042072
-0.0012023404191041551,-0.0012238306234517641,-0.0012093524053649136
-0.0012471434506736924,-0.00127810653470088,-0.0012445101660399295
-0.0011715257536907384,-0.001206234909411516,-0.0011584397092463381
-0.0010735588928554077,-0.001111127662783201,-0.0010525613607454945
-0.000907139851715841,-0.0009411099109471664,-0.0008812351631071861
-0.0008009495068435426,-0.0008294756700549734,-0.0007753134523993902
-0.0007493560593186727,-0.0007539681412820811,-0.0007054618714180546
-0.0006744043071335158,-0.000656149699060521,-0.0006165503086771232
-0.0006678590815465281,-0.000629810330760021,-0.000601549452599221
-0.0007122834870111003,-0.0006526571023846835,-0.0006404622746946847
-0.0009216360492554616,-0.0008485714344486191,-0.0008553900534669912
-0.0011308086407110325,-0.0010441619601091678,-0.0010781313142630424
-0.0012575755869951386,-0.0011814259097569677,-0.0012352791276157699
-0.001423350716978164,-0.0013591436262937594,-0.0014321835634219793
-0.0015285054806717213,-0.0014635124059074417,-0.0015513621233684003
-0.0016203623244188158,-0.0015387483039402121,-0.0016361794828691476
-0.0016097396411600576,-0.0015135562714520697,-0.0016184450450175457
-0.0015272650747569139,-0.0014168745888924544,-0.0015282962492070254
-0.0013903429109643254,-0.0012631860573492821,-0.0013824892395750642
-0.0011743911847775027,-0.001023969449145712,-0.0011523642409087406
-0.000994151056893515,-0.0008183178336976712,-0.0009539523514448851
-0.0008254084359925263,-0.0006192348876308842,-0.0007679085622320752
-0.0006399882869862642,-0.00039928238084552573,-0.0005606548366003833
-0.000554704166811746,-0.000280472223395692,-0.00046915476158565164
-0.0005271242163268394,-0.00022343523238823408,-0.0004382248161570387
-0.0005002230782873655,-0.00017853754429269201,-0.00041587970649503876
-0.00039924377790545536,-8.686084760304169e-05,-0.00034457972201761065
-0.0002245013081281828,6.618553547485211e-05,-0.00020308496054873392
-3.2883536272730036e-05,0.000234742897512317,-3.8516569075981103e-05
0.0001925341950982197,0.0004279849894632215,0.00017051571214751835
0.0003777202586906184,0.0005802543781862068,0.0003278371505995452
0.0004928328184589488,0.000678208547643501,0.00043419724265036507
0.0005028131769828294,0.0006889417516505734,0.00044808883705096546
0.00041989388354717066,0.0006059887908094341,0.00036137041490951036
0.00030653502542053496,0.0004834447242343044,0.00023281081150444103
0.00014591664903417135,0.0003190917336470852,6.606390977016478e-05
6.386565736649971e-05,0.0002299120655504487,-4.458904083701367e-06
0.00010410014544917981,0.00026418830427158926,3.943070081963379e-05
0.00020953253303315184,0.000354946109950705,0.00014199430820202407
0.00035550928984268897,0.0004936024095105542,0.0002937410589358486
0.0004577966834886203,0.000593591958689389,0.00040081081053156144
0.0006460387251060409,0.0007835126112959876,0.0006050067954479144
0.0008298153406816155,0.0009717179889323084,0.00079071479195486
0.0009734683414610769,0.0011075670262198974,0.0009374995664874194
0.0010583163717916854,0.0011670881781717878,0.0010221291993587661
0.001128765152608738,0.001177788067312578,0.0010710431797350097
0.001258739492105365,0.0012566524655255734,0.0011888131730097653
0.0014293431625511444,0.0013751724839775005,0.0013424021124913972
0.0015484746586384888,0.0014320645817546586,0.0014454402363910052
0.0017230200595212504,0.0015654916811026962,0.0016087685744862574
0.0019877422830079723,0.0018054304639595969,0.0018794680844001555
0.0021996366462043644,0.0020159412907011986,0.002119206096711367
0.0024457199949010867,0.002246911676149095,0.0023859346155123778
0.002650991926628459,0.002469957706282897,0.002624727296442223
0.002801074520440514,0.0026292078816298734,0.0027918884306478067
0.0028922551957785963,0.0027002961668748378,0.00288883275421974
0.0028817754667911674,0.0026736576698495732,0.002871394272249576
0.0029123327792651083,0.002712074118055217,0.002897877652434271
0.002831811803703245,0.002657020331106034,0.002809417338684
0.0026888418458291923,0.0025190172849678364,0.0026594829872161165
0.0026016686493154978,0.0024507124656607225,0.0025879926320700303
0.002406741071879018,0.0022797964463042906,0.0024074755853711874
0.0022266620539849466,0.0021169412145723003,0.0022438551693171665
0.0020389033423410573,0.0019332306999233298,0.0020765799889807435
0.001851109024331771,0.001754104592983526,0.0019151817979334517
0.001739025297140181,0.0016432736105465278,0.001821548513825956
0.0017016528910313389,0.0016230183477722304,0.0018046716253251665
0.001854011648206541,0.0017989747830944253,0.0019777955918895726
0.0019782672880998245,0.001978536627339886,0.0021370120998310685
0.0021432266445173265,0.0022075015988186524,0.002333745730843053
0.0024459687106519567,0.0025768823883787107,0.002682067822903075
0.0027541680692619694,0.002937432270457707,0.003018522771599154
0.0028899793849537013,0.003134656458475981,0.0031944132822643435
0.0029057445440084755,0.0032139299773570407,0.003246375661093652
0.003030017458277078,0.0033713065880488975,0.0033866210269208642
0.0029696794751449067,0.0033499269044496034,0.003340551501602995
0.0028520933305806653,0.0032582715363265943,0.003221871607044563
0.0026343256797472666,0.003082145882631839,0.0030117032712356235
0.0023815973371333634,0.002837619695491098,0.002744196347925749
0.0021129723386898733,0.0025596281076573127,0.002453050323221845
0.0017435864373227892,0.0021721048171942374,0.0020537947352844573
0.0015385771466086807,0.00192335063853844,0.001816446756200471
0.0012624161137603698,0.0015827665853132852,0.0014833326364535324
0.0009800086315115836,0.0012284739050528854,0.0011479943527380582
0.0008271148975064907,0.001006923342275198,0.000936802069513657
0.0006086226042501028,0.0007391338595384275,0.0006726137652420678
0.0003140113045872967,0.0004245997406914255,0.00035187532531907683
-2.467485884142316e-05,8.452228496635963e-05,-1.933267011352939e-05
-0.00040624007621255795,-0.00026942120613457983,-0.00040434659314569785
-0.0007142698639127026,-0.0005463703382941721,-0.0007237721805377857
-0.0010119433110213683,-0.0007987993759137118,-0.001024987227141282
-0.0012220083531156972,-0.0009514239469473962,-0.0012336666175531963
-0.0013241832870524526,-0.000998463128786055,-0.0013341402017811217
-0.0013333020420360896,-0.0009641519887760228,-0.0013341825063752073
-0.001313025098156898,-0.0009076349917213044,-0.0012963734816136586
-0.0013310755865703313,-0.0008937118451456843,-0.0012820027877004489
-0.0014153729521164476,-0.0009700330322545849,-0.001358479267917626
-0.001563206351744037,-0.0011350636014038258,-0.0015305271114014133
-0.0017257621022130102,-0.0013497758030200538,-0.0017323305953256107
-0.001959347264034993,-0.0016371085974880599,-0.002002930865716221
-0.0022275677248105386,-0.001975034335862577,-0.002337534812207234
-0.0024630312105535773,-0.002289364511317725,-0.0026613704771317383
-0.0025898545629618706,-0.002468086785665144,-0.002847101917434841
-0.0026948561487757207,-0.002604969817708865,-0.002970641728362394
-0.002736507664449073,-0.0026499655114452293,-0.003020451332224505
-0.002787855569067345,-0.0026962005534816435,-0.0030734833121743967
-0.002767907719666274,-0.002662577920718516,-0.003043048154212049
-0.0027003954063981256,-0.0025809053788881015,-0.002969571774703558
-0.0026585660351664438,-0.0025230069606090536,-0.00291593025607722
-0.002547785641971993,-0.0024163655430156947,-0.0028184830366582672
-0.002477156361559244,-0.002357990845529112,-0.0027582108019144473
0.14996717736471546,0.1550130139591812,0.16096347081432255
0.3023461524340353,0.3123127027389222,0.32462916476972364
0.45433634283094887,0.4690216625232937,0.48791138186896627
0.6063290683305886,0.6257301446183038,0.6511906355314803
0.7584280931094265,0.7825652826100427,0.8145986733642805
0.9105741403245353,0.9394843217143083,0.9780673953727966
0.910398459926681,0.939131088940367,0.97790564376213
0.9102394528264738,0.9388179926488684,0.9777698777476069
0.9104172590301176,0.9390662994564553,0.9779775562818595
0.9105869586161615,0.9393106719369094,0.9781720199189282
0.9106736724553036,0.9394769448509344,0.9782924928231458
0.9106990234825542,0.9395509990406747,0.9783340253571519
0.9107608780853386,0.9396626990299553,0.978420786788962
0.9109068130663628,0.9398332235555591,0.9785666900415406
0.911043419884671,0.9399877569450751,0.9787155281752477
0.9111985243861901,0.9401689580922931,0.9789067237825205
0.9112934082998235,0.9402779770280034,0.9790148860502261
0.9113260727335586,0.9403260932142679,0.9790619710620404
0.9113206788979734,0.9403409579905717,0.979060099083808
0.9112678193092384,0.9403266484620485,0.9790507391926454
0.9111590066084163,0.9402561954507725,0.9789729727748846
0.9110221935552201,0.9401493023208517,0.9788478992461973
0.9108930429213992,0.9400524512436528,0.9787305040011076
0.9108359634495299,0.9400273699081816,0.978689606035994
0.9107635908673544,0.9399919450997647,0.9786547999322472
0.9106940897094169,0.9399600738771451,0.9786042565199694
0.9106628213272451,0.9399731777247726,0.9785951663205862
0.9106134360031958,0.9399635322776085,0.9785689268968862
0.910552073191303,0.9399337709965561,0.9785313128257908
0.9105480436788365,0.9399689102489714,0.9785607250939523
0.9105808984832392,0.9400294322570818,0.9786048434961948
0.9106441174091423,0.9401076587372895,0.9786569733307035
0.9106702299190634,0.9401405928628038,0.978659051543826
0.9107206464175629,0.9401963556042214,0.9786837204095171
0.9108838734009043,0.9403726229783012,0.9788291477354275
0.9110933128638331,0.9406130611316226,0.9790069698032936
0.9114074403297816,0.9409925174650413,0.9793058517516029
0.912223051727153,0.9417281414535287,0.9800675723857891
0.9133629754211955,0.9427487979242491,0.9811551917388777
0.9146587492352057,0.9438900542129656,0.9823672341875387
0.9159541423078805,0.9450221885738541,0.9835988372223073
0.9174220746623925,0.9462729238607279,0.9849883051332768
0.9189098214305688,0.9474533806427712,0.9863705072304286
0.9200248065671408,0.9483710148538143,0.9874092647788041
0.920930701253675,0.9490668513727494,0.9882296671713129
0.0,0.0,0.0
0.0,0.0,0.0
0.0,0.0,0.0
