y,u,v
155.31736755371094,125.33894348144531,131.1104736328125
155.43917846679688,125.34993743896484,131.10479736328125
155.52272033691406,125.35086822509766,131.1107940673828
155.6639404296875,125.35984802246094,131.11009216308594
155.718505859375,125.36680603027344,131.11715698242188
155.7138214111328,125.35980224609375,131.1234893798828
155.82923889160156,125.35663604736328,131.1192626953125
155.89706420898438,125.36029052734375,131.1202850341797
156.15171813964844,125.35665130615234,131.12815856933594
156.56741333007812,125.34021759033203,131.10655212402344
156.65240478515625,125.30854034423828,131.11961364746094
156.76161193847656,125.31259155273438,131.11822509765625
156.82728576660156,125.32112121582031,131.1213836669922
156.86764526367188,125.33309936523438,131.13121032714844
156.7284393310547,125.31613159179688,131.13626098632812
156.8175506591797,125.32179260253906,131.15084838867188
156.83216857910156,125.3291244506836,131.1479034423828
156.7260284423828,125.3424072265625,131.1393585205078
156.5843505859375,125.3569107055664,131.144287109375
156.58181762695312,125.35712432861328,131.15792846679688
156.7168426513672,125.33292388916016,131.15560913085938
156.67617797851562,125.34164428710938,131.15550231933594
156.6453399658203,125.37406921386719,131.18157958984375
156.6018829345703,125.39263916015625,131.1657257080078
156.48585510253906,125.3955307006836,131.15280151367188
156.343505859375,125.38726806640625,131.15359497070312
156.23837280273438,125.37893676757812,131.15391540527344
156.21678161621094,125.3676986694336,131.1566925048828
156.29005432128906,125.36324310302734,131.14813232421875
156.1780242919922,125.33952331542969,131.13442993164062
156.14883422851562,125.24942016601562,131.07730102539062
155.98394775390625,125.24788665771484,131.0685577392578
155.75372314453125,125.27666473388672,131.082763671875
155.68045043945312,125.28208923339844,131.08290100097656
155.7145233154297,125.28104400634766,131.08746337890625
155.69288635253906,125.2971420288086,131.102783203125
155.5919647216797,125.3041000366211,131.11984252929688
155.47848510742188,125.30690002441406,131.12721252441406
155.3970947265625,125.28364562988281,131.12448120117188
155.44625854492188,125.29053497314453,131.13246154785156
155.39671325683594,125.29109954833984,131.13119506835938
155.41957092285156,125.28583526611328,131.12733459472656
155.41574096679688,125.28352355957031,131.1287841796875
155.29830932617188,125.29029846191406,131.1299285888672
155.17539978027344,125.27946472167969,131.15182495117188
155.16104125976562,125.28648376464844,131.14785766601562
155.05545043945312,125.29216003417969,131.14344787597656
154.8569793701172,125.289794921875,131.1442413330078
154.71205139160156,125.30233764648438,131.13084411621094
154.407958984375,125.31396484375,131.13555908203125
154.14064025878906,125.33917999267578,131.134765625
154.01324462890625,125.34562683105469,131.14991760253906
153.91217041015625,125.35372924804688,131.14500427246094
153.7276153564453,125.35321807861328,131.157470703125
153.61773681640625,125.3484115600586,131.15435791015625
153.64169311523438,125.32518005371094,131.144287109375
153.6568145751953,125.32018280029297,131.14349365234375
153.60452270507812,125.31110382080078,131.14259338378906
153.5499267578125,125.2927017211914,131.1544647216797
153.47882080078125,125.2977523803711,131.16146850585938
153.4923858642578,125.27906036376953,131.1659698486328
153.4495086669922,125.2802963256836,131.169677734375
153.3408966064453,125.24496459960938,131.17782592773438
153.38035583496094,125.24234771728516,131.19375610351562
153.3375244140625,125.24552917480469,131.20004272460938
153.38638305664062,125.2596206665039,131.20819091796875
153.45606994628906,125.26213836669922,131.2120819091797
153.62295532226562,125.27143096923828,131.2187042236328
153.79998779296875,125.27978515625,131.23825073242188
153.88916015625,125.27278137207031,131.24435424804688
153.9322509765625,125.27181243896484,131.25314331054688
154.0074920654297,125.26787567138672,131.2507781982422
154.1015167236328,125.26541900634766,131.24871826171875
154.0805206298828,125.26795959472656,131.25509643554688
154.0203857421875,125.27111053466797,131.26438903808594
153.7566375732422,125.26799774169922,131.270263671875
153.66195678710938,125.27364349365234,131.27561950683594
153.57000732421875,125.27254486083984,131.281982421875
153.44363403320312,125.278564453125,131.28524780273438
153.3070831298828,125.27926635742188,131.28286743164062
153.1041717529297,125.27637481689453,131.296630859375
152.94261169433594,125.28919219970703,131.30152893066406
152.7339630126953,125.31742095947266,131.33152770996094
152.60562133789062,125.31869506835938,131.3342742919922
152.5650177001953,125.32318115234375,131.34219360351562
152.58804321289062,125.3219985961914,131.34808349609375
152.58860778808594,125.31736755371094,131.3582305908203
152.44630432128906,125.31189727783203,131.37814331054688
152.44126892089844,125.32019805908203,131.38134765625
152.42169189453125,125.32685089111328,131.3798065185547
152.28184509277344,125.3426513671875,131.50686645507812
152.23866271972656,125.34318542480469,131.5142364501953
152.2822265625,125.34234619140625,131.5152130126953
152.31411743164062,125.34516143798828,131.5151824951172
152.39842224121094,125.34400177001953,131.51953125
152.49258422851562,125.34257507324219,131.5240936279297
152.68348693847656,125.33779907226562,131.5352020263672
152.7493133544922,125.33625030517578,131.54647827148438
152.78952026367188,125.33809661865234,131.54571533203125
152.8442840576172,125.33843231201172,131.53994750976562
152.79339599609375,125.33538055419922,131.55615234375
152.73849487304688,125.33512115478516,131.5615692138672
152.7469482421875,125.3343276977539,131.5631103515625
152.78369140625,125.32731628417969,131.5634307861328
152.68531799316406,125.3154067993164,131.58604431152344
152.66065979003906,125.32273864746094,131.5948486328125
152.4498748779297,125.33287048339844,131.6071014404297
152.3226776123047,125.34495544433594,131.61148071289062
152.3486328125,125.34944152832031,131.615234375
152.17193603515625,125.36170196533203,131.62368774414062
152.0478973388672,125.36978912353516,131.61941528320312
151.88070678710938,125.36750030517578,131.6179962158203
151.69859313964844,125.3661117553711,131.62319946289062
151.5397186279297,125.36075592041016,131.62928771972656
151.4843292236328,125.3603515625,131.62985229492188
151.4668426513672,125.36334991455078,131.62612915039062
151.32461547851562,125.364501953125,131.62376403808594
151.29086303710938,125.3607177734375,131.62135314941406
151.2609405517578,125.36238098144531,131.62252807617188
151.15992736816406,125.35052490234375,131.64553833007812
151.1915283203125,125.34012603759766,131.6928253173828
151.2206573486328,125.34220886230469,131.68934631347656
151.30557250976562,125.3467025756836,131.6909637451172
151.3008270263672,125.35067749023438,131.71807861328125
151.3528594970703,125.35816955566406,131.71885681152344
151.3243865966797,125.36796569824219,131.72238159179688
151.3145751953125,125.37374877929688,131.71932983398438
151.2769775390625,125.3844223022461,131.71861267089844
151.24063110351562,125.38977813720703,131.72000122070312
151.2836151123047,125.37193298339844,131.70863342285156
151.3306427001953,125.35912322998047,131.6995391845703
151.32025146484375,125.35089111328125,131.6909942626953
151.29449462890625,125.32877349853516,131.67727661132812
151.24240112304688,125.28426361083984,131.67417907714844
151.33949279785156,125.2356948852539,131.65444946289062
151.34652709960938,125.22478485107422,131.6481170654297
151.37730407714844,125.2136459350586,131.6422882080078
151.3367156982422,125.1981430053711,131.64317321777344
151.34548950195312,125.15668487548828,131.63119506835938
151.40553283691406,125.14727783203125,131.61508178710938
151.41270446777344,125.13348388671875,131.60736083984375
151.5425262451172,125.11454010009766,131.6089630126953
151.58975219726562,125.11217498779297,131.6068572998047
151.63853454589844,125.09416961669922,131.6002960205078
151.76634216308594,125.08076477050781,131.59327697753906
151.90223693847656,125.06881713867188,131.58566284179688
151.98667907714844,125.06592559814453,131.58328247070312
152.12425231933594,125.05587768554688,131.5757598876953
152.27145385742188,125.05776977539062,131.5784912109375
152.3893585205078,125.05696868896484,131.5782928466797
152.5655517578125,125.0498046875,131.57791137695312
152.69068908691406,125.0446548461914,131.5791473388672
152.76852416992188,125.0386962890625,131.582275390625
152.89466857910156,125.0203857421875,131.58656311035156
152.9564208984375,125.01580047607422,131.5855255126953
152.99632263183594,125.00968170166016,131.58428955078125
153.01605224609375,125.00450134277344,131.5731964111328
153.07652282714844,125.0069580078125,131.57667541503906
153.04115295410156,125.01095581054688,131.578857421875
153.15280151367188,124.99589538574219,131.57618713378906
153.23696899414062,124.98873901367188,131.5723876953125
153.303955078125,124.98210906982422,131.5670623779297
153.36341857910156,124.97293090820312,131.56602478027344
153.44134521484375,124.97200012207031,131.5672149658203
153.55809020996094,124.96607208251953,131.5589599609375
153.61221313476562,124.95769500732422,131.55343627929688
153.67501831054688,124.95658111572266,131.55271911621094
153.7235870361328,124.95298767089844,131.54718017578125
153.755615234375,124.95712280273438,131.5449676513672
153.7688751220703,124.95160675048828,131.53781127929688
153.8013153076172,124.94921112060547,131.53936767578125
153.84642028808594,124.9422378540039,131.53895568847656
153.9007568359375,124.93699645996094,131.52711486816406
153.988037109375,124.93865966796875,131.52041625976562
153.98765563964844,124.93900299072266,131.5182342529297
154.0298614501953,124.93563079833984,131.5162811279297
154.03402709960938,124.93629455566406,131.5173797607422
154.02554321289062,124.92682647705078,131.5265655517578
154.04776000976562,124.92533874511719,131.53118896484375
154.08982849121094,124.92394256591797,131.53395080566406
154.23782348632812,124.91007232666016,131.5314483642578
154.27859497070312,124.9061050415039,131.53076171875
154.2659454345703,124.90559387207031,131.53146362304688
154.3731231689453,124.90495300292969,131.53407287597656
154.3314666748047,124.90205383300781,131.5343780517578
154.38172912597656,124.90010070800781,131.54246520996094
154.38497924804688,124.9046630859375,131.54641723632812
154.41053771972656,124.89891052246094,131.54592895507812
154.44879150390625,124.89022064208984,131.53868103027344
154.47598266601562,124.89334869384766,131.54237365722656
154.50436401367188,124.89784240722656,131.5422821044922
154.4960479736328,124.89319610595703,131.54689025878906
154.5703887939453,124.90164184570312,131.54380798339844
154.54074096679688,124.90139770507812,131.5394287109375
154.52064514160156,124.90108489990234,131.5420684814453
154.52029418945312,124.89505004882812,131.5424346923828
154.50015258789062,124.89696502685547,131.54257202148438
154.4584197998047,124.89326477050781,131.5519256591797
154.44711303710938,124.900634765625,131.56088256835938
154.46730041503906,124.91309356689453,131.56793212890625
154.54408264160156,124.91807556152344,131.57281494140625
154.62498474121094,124.9201431274414,131.57846069335938
154.76441955566406,124.91757202148438,131.5833282470703
154.7842559814453,124.91595458984375,131.59300231933594
154.79725646972656,124.91478729248047,131.59815979003906
154.88951110839844,124.91400146484375,131.60098266601562
154.908447265625,124.92247009277344,131.60667419433594
154.96075439453125,124.91858673095703,131.60829162597656
154.98289489746094,124.91728973388672,131.60671997070312
154.9598846435547,124.91765594482422,131.6045379638672
154.9149932861328,124.90745544433594,131.60403442382812
154.96498107910156,124.90553283691406,131.6033172607422
154.95640563964844,124.90480041503906,131.60159301757812
154.94984436035156,124.90662384033203,131.6002960205078
154.94207763671875,124.90895080566406,131.59710693359375
154.94117736816406,124.90734100341797,131.5950164794922
154.86105346679688,124.9053726196289,131.59608459472656
154.86996459960938,124.9034652709961,131.5959930419922
154.8755645751953,124.90666961669922,131.59963989257812
154.80685424804688,124.91411590576172,131.6104278564453
154.77734375,124.90776062011719,131.63291931152344
154.82803344726562,124.90812683105469,131.6332244873047
154.89707946777344,124.9094009399414,131.63197326660156
154.8909149169922,124.91179656982422,131.62255859375
154.8508758544922,124.91386413574219,131.61732482910156
154.79124450683594,124.90894317626953,131.6167755126953
154.76683044433594,124.90939331054688,131.61886596679688
154.78970336914062,124.90865325927734,131.61302185058594
154.8115692138672,124.91040802001953,131.61085510253906
154.79833984375,124.90888977050781,131.61294555664062
154.91082763671875,124.90948486328125,131.6131134033203
154.98948669433594,124.90676879882812,131.61074829101562
154.99496459960938,124.91024017333984,131.60888671875
155.11720275878906,124.90798950195312,131.6103057861328
155.22386169433594,124.90971374511719,131.60939025878906
155.36767578125,124.90816497802734,131.61155700683594
155.41664123535156,124.90943145751953,131.60946655273438
155.41285705566406,124.90841674804688,131.60452270507812
155.40969848632812,124.90831756591797,131.60179138183594
155.36875915527344,124.91450500488281,131.60174560546875
155.35757446289062,124.91329193115234,131.60723876953125
155.30104064941406,124.92145538330078,131.61180114746094
155.20291137695312,124.93021392822266,131.6129913330078
155.20309448242188,124.93145751953125,131.6135711669922
155.18206787109375,124.93231964111328,131.61376953125
155.1930694580078,124.931884765625,131.60426330566406
155.1824951171875,124.92198181152344,131.6100616455078
155.14381408691406,124.92472839355469,131.60523986816406
155.1226806640625,124.92253875732422,131.60980224609375
155.17337036132812,124.92669677734375,131.60853576660156
155.19674682617188,124.924072265625,131.60690307617188
155.25588989257812,124.92842864990234,131.60997009277344
155.2988739013672,124.93926239013672,131.61959838867188
155.2824249267578,124.9426498413086,131.62350463867188
155.3666229248047,124.9383773803711,131.62098693847656
155.45382690429688,124.93853759765625,131.6195068359375
155.48143005371094,124.93500518798828,131.6169891357422
155.4766845703125,124.93501281738281,131.60147094726562
155.5099639892578,124.92992401123047,131.59974670410156
155.50733947753906,124.92926788330078,131.59921264648438
155.52517700195312,124.91796112060547,131.6039581298828
155.50619506835938,124.91178131103516,131.61094665527344
155.5355987548828,124.91047668457031,131.62208557128906
155.53965759277344,124.9149169921875,131.62496948242188
155.4855499267578,124.92237091064453,131.63685607910156
155.45262145996094,124.92596435546875,131.6418914794922
155.4422607421875,124.92304992675781,131.64210510253906
155.43783569335938,124.92009735107422,131.64100646972656
155.34542846679688,124.89997100830078,131.6438751220703
155.43099975585938,124.90122985839844,131.6458740234375
155.5218048095703,124.89935302734375,131.64630126953125
155.555908203125,124.89641571044922,131.6483154296875
155.71896362304688,124.89302825927734,131.6470947265625
155.69790649414062,124.8913345336914,131.64434814453125
155.6566162109375,124.89208221435547,131.64625549316406
155.66058349609375,124.89447784423828,131.64698791503906
155.6678924560547,124.89573669433594,131.65045166015625
155.63702392578125,124.90174865722656,131.65396118164062
155.65756225585938,124.90701293945312,131.6533660888672
155.62448120117188,124.91014862060547,131.6535186767578
155.62294006347656,124.91290283203125,131.65350341796875
155.6019744873047,124.91053009033203,131.65074157714844
155.61312866210938,124.90978240966797,131.6518096923828
155.5386962890625,124.90863037109375,131.652099609375
155.5845489501953,124.90792083740234,131.65701293945312
155.5697784423828,124.9049072265625,131.65081787109375
155.6543426513672,124.904296875,131.64703369140625
155.7467803955078,124.89984893798828,131.64688110351562
155.75436401367188,124.89739227294922,131.64572143554688
155.82760620117188,124.8956527709961,131.64772033691406
155.83920288085938,124.8938217163086,131.64845275878906
155.9162139892578,124.89608001708984,131.6476593017578
155.97657775878906,124.8915786743164,131.65203857421875
156.02053833007812,124.89374542236328,131.6540069580078
155.9994659423828,124.8893814086914,131.65341186523438
156.07411193847656,124.88890075683594,131.6533203125
156.048095703125,124.88782501220703,131.65090942382812
156.0763702392578,124.89100646972656,131.64830017089844
156.10763549804688,124.89111328125,131.64877319335938
156.158203125,124.89108276367188,131.6495361328125
155.3290252685547,125.01190185546875,131.84877014160156
155.4296417236328,125.01168823242188,131.85247802734375
155.4765625,125.01468658447266,131.84719848632812
155.649169921875,125.01902770996094,131.85194396972656
155.7034912109375,125.01805114746094,131.84613037109375
155.78549194335938,125.01667785644531,131.84048461914062
155.76473999023438,125.0106430053711,131.84378051757812
155.7969207763672,125.00676727294922,131.8478546142578
155.83924865722656,124.99512481689453,131.8443603515625
155.82093811035156,124.9969711303711,131.83697509765625
155.86428833007812,124.99214172363281,131.8385467529297
155.93223571777344,124.99561309814453,131.84152221679688
155.9182891845703,124.99432373046875,131.8488311767578
156.00160217285156,124.98246765136719,131.85238647460938
156.02955627441406,124.97876739501953,131.85906982421875
156.091552734375,124.97941589355469,131.85256958007812
156.1927947998047,124.96765899658203,131.84201049804688
156.1031036376953,124.97476196289062,131.83164978027344
156.1311798095703,124.97229766845703,131.8341522216797
156.15087890625,124.977783203125,131.83433532714844
156.2318572998047,124.97418212890625,131.8370361328125
156.2560272216797,124.97881317138672,131.84066772460938
156.21868896484375,124.97615814208984,131.83523559570312
156.2144317626953,124.97781372070312,131.82870483398438
156.2859649658203,124.97633361816406,131.82656860351562
156.3101348876953,124.97527313232422,131.82833862304688
156.27328491210938,124.97411346435547,131.82374572753906
156.27162170410156,124.97097778320312,131.81895446777344
156.1897735595703,124.97460174560547,131.81590270996094
156.21766662597656,124.97705841064453,131.81790161132812
156.20965576171875,124.97610473632812,131.80282592773438
156.19345092773438,124.97748565673828,131.79959106445312
156.21798706054688,124.9775390625,131.7968292236328
156.2333526611328,124.97730255126953,131.8000946044922
156.15306091308594,124.98703002929688,131.80406188964844
156.06683349609375,124.98818969726562,131.80264282226562
156.0341033935547,124.99174499511719,131.7996063232422
155.930908203125,124.98433685302734,131.79820251464844
155.96226501464844,124.98784637451172,131.7996826171875
155.9440460205078,124.99102783203125,131.79953002929688
155.92630004882812,124.9925537109375,131.7921905517578
155.92726135253906,124.99176025390625,131.7901153564453
155.94776916503906,124.99068450927734,131.79002380371094
155.87191772460938,124.9858627319336,131.79556274414062
155.80868530273438,124.98506164550781,131.79710388183594
155.83453369140625,124.97621154785156,131.79580688476562
155.83297729492188,124.97796630859375,131.79432678222656
155.850830078125,124.97830963134766,131.7938995361328
155.8197479248047,124.97611236572266,131.8035125732422
155.77395629882812,124.97554016113281,131.80621337890625
155.7935333251953,124.9800796508789,131.8074951171875
155.80136108398438,124.97991180419922,131.8156280517578
155.770263671875,124.97513580322266,131.81842041015625
155.80845642089844,124.968017578125,131.815673828125
155.81185913085938,124.96760559082031,131.81629943847656
155.80784606933594,124.97329711914062,131.81097412109375
155.7858123779297,124.9686279296875,131.8024139404297
155.75311279296875,124.96150207519531,131.8001708984375
155.7733612060547,124.95896911621094,131.8015594482422
155.81097412109375,124.95755767822266,131.80152893066406
155.88418579101562,124.96031188964844,131.8074493408203
155.97679138183594,124.96141052246094,131.80357360839844
156.0125274658203,124.96112060546875,131.80335998535156
156.11758422851562,124.96190643310547,131.81121826171875
156.16920471191406,124.9653091430664,131.81373596191406
156.15419006347656,124.963623046875,131.8153839111328
156.20654296875,124.9612045288086,131.81600952148438
156.1954345703125,124.95848083496094,131.8196258544922
156.17527770996094,124.95767974853516,131.81866455078125
156.19232177734375,124.95275115966797,131.81922912597656
156.15367126464844,124.95677185058594,131.81875610351562
156.23802185058594,124.95445251464844,131.82867431640625
156.19613647460938,124.96454620361328,131.8349609375
156.1765899658203,124.96470642089844,131.8351287841797
156.2205352783203,124.96881103515625,131.83543395996094
156.21498107910156,124.9740219116211,131.841064453125
156.1189422607422,124.974609375,131.84213256835938
156.14474487304688,124.97075653076172,131.8423614501953
156.1764373779297,124.96888732910156,131.8419952392578
156.19577026367188,124.96247863769531,131.84164428710938
156.2026824951172,124.96234130859375,131.84115600585938
156.07496643066406,124.95906829833984,131.8432159423828
156.13143920898438,124.95948791503906,131.84706115722656
156.2401580810547,124.95762634277344,131.84417724609375
156.25230407714844,124.96331024169922,131.8466033935547
156.27410888671875,124.9614028930664,131.8530731201172
156.3466796875,124.96156311035156,131.85260009765625
156.351318359375,124.96179962158203,131.84832763671875
156.4037322998047,124.96102142333984,131.84710693359375
156.4599151611328,124.96056365966797,131.84878540039062
156.4287567138672,124.95306396484375,131.8491668701172
156.41610717773438,124.95575714111328,131.85472106933594
156.335693359375,124.96578216552734,131.85079956054688
156.2868194580078,124.96886444091797,131.85086059570312
156.37619018554688,124.96815490722656,131.85452270507812
156.3660430908203,124.97318267822266,131.85330200195312
156.3897705078125,124.96714782714844,131.84906005859375
156.38673400878906,124.97045135498047,131.85076904296875
156.41099548339844,124.97036743164062,131.84156799316406
156.45465087890625,124.97371673583984,131.84141540527344
156.470947265625,124.97748565673828,131.83963012695312
156.33241271972656,124.9759750366211,131.8414764404297
156.31521606445312,124.9793930053711,131.8428192138672
156.261962890625,124.9786148071289,131.841552734375
156.28306579589844,124.9802017211914,131.84133911132812
156.27835083007812,124.97880554199219,131.84104919433594
156.27243041992188,124.97566986083984,131.8428497314453
156.3009796142578,124.9737548828125,131.8440704345703
156.3171844482422,124.97410583496094,131.83934020996094
156.3469696044922,124.97026062011719,131.839599609375
156.4096221923828,124.96992492675781,131.84420776367188
156.3992462158203,124.9649658203125,131.8531494140625
156.41151428222656,124.9661636352539,131.8536834716797
156.42694091796875,124.96580505371094,131.85475158691406
156.41265869140625,124.96250915527344,131.8529510498047
156.41796875,124.9637680053711,131.8522491455078
156.431640625,124.96714782714844,131.85342407226562
156.30120849609375,124.97478485107422,131.84767150878906
156.2812957763672,124.98068237304688,131.8471221923828
156.32437133789062,124.98298645019531,131.84686279296875
156.32789611816406,124.9806137084961,131.84959411621094
156.31056213378906,124.98400115966797,131.849853515625
156.3679962158203,124.98469543457031,131.8372802734375
156.34259033203125,124.98782348632812,131.83441162109375
156.41098022460938,124.9879379272461,131.83316040039062
156.48545837402344,124.98711395263672,131.83387756347656
156.5238494873047,124.98986053466797,131.8321533203125
156.53121948242188,124.99104309082031,131.8335723876953
156.5301055908203,124.9935073852539,131.82395935058594
156.521484375,124.99424743652344,131.81993103027344
156.4566192626953,124.99897766113281,131.81961059570312
156.32749938964844,125.00505065917969,131.8262176513672
156.2438201904297,125.00963592529297,131.81820678710938
156.224365234375,125.01188659667969,131.81483459472656
156.14784240722656,125.01313018798828,131.81654357910156
156.062255859375,125.02079772949219,131.81544494628906
155.98387145996094,125.02577209472656,131.81039428710938
155.93296813964844,125.02796173095703,131.81027221679688
155.95082092285156,125.0138168334961,131.80259704589844
155.85536193847656,125.01554870605469,131.79635620117188
155.83396911621094,125.0168228149414,131.79112243652344
155.59823608398438,125.02188873291016,131.80056762695312
155.4573211669922,125.01290130615234,131.7859649658203
155.32240295410156,125.01676940917969,131.7848663330078
155.1732635498047,125.0294418334961,131.77377319335938
155.01422119140625,125.0290298461914,131.7533721923828
154.88014221191406,125.02139282226562,131.7692108154297
154.7729034423828,125.01126861572266,131.78086853027344
154.7036590576172,125.01460266113281,131.78099060058594
154.5912322998047,125.00862884521484,131.78929138183594
154.48641967773438,125.00689697265625,131.78631591796875
154.46299743652344,125.00248718261719,131.7835693359375
154.50689697265625,125.00480651855469,131.79116821289062
154.55076599121094,125.00422668457031,131.79505920410156
154.59849548339844,125.01144409179688,131.80181884765625
154.65440368652344,125.0101547241211,131.82168579101562
154.75161743164062,125.0084457397461,131.8267364501953
154.7751007080078,125.00570678710938,131.8330535888672
154.85826110839844,125.00452423095703,131.83409118652344
154.9365692138672,124.99848175048828,131.8355712890625
155.07339477539062,124.99581909179688,131.83145141601562
155.1710968017578,124.99231719970703,131.82965087890625
155.2639617919922,124.99375915527344,131.8301239013672
155.31700134277344,124.99501037597656,131.8250732421875
155.33740234375,124.99990844726562,131.82662963867188
155.3585205078125,125.00049591064453,131.83108520507812
155.38958740234375,125.003173828125,131.8316192626953
155.39675903320312,125.00365447998047,131.83270263671875
155.3580780029297,125.00598907470703,131.83514404296875
155.2680206298828,125.0042724609375,131.83741760253906
155.1996307373047,125.00396728515625,131.84205627441406
155.111083984375,125.00920104980469,131.84068298339844
155.11563110351562,125.01419830322266,131.833740234375
155.1017608642578,125.0161361694336,131.84486389160156
155.0441436767578,125.01514434814453,131.84579467773438
155.1321563720703,125.01461029052734,131.84327697753906
155.16941833496094,125.01471710205078,131.84703063964844
155.1181182861328,125.0107650756836,131.8501739501953
155.16819763183594,125.0059814453125,131.84613037109375
155.11744689941406,125.00175476074219,131.8447265625
155.13247680664062,125.00188446044922,131.8372344970703
155.1094512939453,125.00345611572266,131.83580017089844
155.0998992919922,125.00606536865234,131.8389434814453
155.06515502929688,125.00960540771484,131.83364868164062
155.06138610839844,125.01612091064453,131.83694458007812
154.99212646484375,125.02489471435547,131.841064453125
155.00482177734375,125.02157592773438,131.83462524414062
154.96311950683594,125.0218276977539,131.83787536621094
154.9228057861328,125.02418518066406,131.8368682861328
154.929931640625,125.02294158935547,131.8366241455078
154.97943115234375,125.01686096191406,131.8388671875
155.0300750732422,125.01294708251953,131.84127807617188
155.02186584472656,125.01020812988281,131.84033203125
155.07672119140625,125.01163482666016,131.84063720703125
155.04197692871094,125.01026916503906,131.83847045898438
155.0464630126953,125.00596618652344,131.84246826171875
154.97369384765625,124.99298095703125,131.8451690673828
154.92568969726562,124.99549102783203,131.84817504882812
154.96524047851562,124.9912338256836,131.84422302246094
154.9692840576172,124.98992156982422,131.8406219482422
154.942138671875,124.98497772216797,131.83135986328125
154.93910217285156,124.98295593261719,131.82139587402344
154.89122009277344,124.981689453125,131.82569885253906
154.8544158935547,124.98242950439453,131.83282470703125
154.91015625,124.9819107055664,131.83511352539062
154.85012817382812,124.98249053955078,131.8313446044922
154.8377227783203,124.9861831665039,131.83848571777344
154.8198699951172,124.98786926269531,131.83871459960938
154.8137664794922,124.9887466430664,131.83987426757812
154.75852966308594,124.99398040771484,131.8460693359375
154.65274047851562,124.99134063720703,131.84808349609375
154.55250549316406,124.99929809570312,131.8483428955078
154.5527801513672,125.0030517578125,131.8507537841797
154.53790283203125,125.00360107421875,131.85035705566406
154.56788635253906,125.00699615478516,131.85438537597656
154.58387756347656,125.00071716308594,131.85455322265625
154.55438232421875,125.00363159179688,131.8575439453125
154.555908203125,124.99950408935547,131.85968017578125
154.5253143310547,124.99848937988281,131.85482788085938
154.48765563964844,124.99517822265625,131.85366821289062
154.46058654785156,124.99610137939453,131.85450744628906
154.36270141601562,125.00154113769531,131.8659210205078
154.33132934570312,125.00383758544922,131.8661651611328
154.2830810546875,125.0031967163086,131.87197875976562
154.2176513671875,125.01231384277344,131.8732452392578
154.19888305664062,125.01522827148438,131.8716278076172
154.09193420410156,125.01476287841797,131.88429260253906
153.95993041992188,125.0409927368164,131.89210510253906
153.933837890625,125.04559326171875,131.8846893310547
153.9772186279297,125.04649353027344,131.884521484375
153.972412109375,125.04235076904297,131.8839569091797
153.89231872558594,125.03914642333984,131.8870086669922
153.87786865234375,125.0419921875,131.88775634765625
153.9211883544922,125.0344467163086,131.8899688720703
153.87991333007812,125.02694702148438,131.8845977783203
153.83856201171875,125.0257568359375,131.88232421875
153.80642700195312,125.02171325683594,131.8828887939453
153.77381896972656,125.02490234375,131.8832244873047
153.7244415283203,125.0238265991211,131.88131713867188
153.7399444580078,125.0188217163086,131.87704467773438
153.7078094482422,125.00283813476562,131.87057495117188
153.6929168701172,124.99319458007812,131.86888122558594
153.71434020996094,124.99346160888672,131.87074279785156
153.76809692382812,124.99400329589844,131.86940002441406
153.82191467285156,124.9913101196289,131.86822509765625
153.81761169433594,124.9889907836914,131.86892700195312
153.78131103515625,124.9865951538086,131.87484741210938
153.88560485839844,124.98371124267578,131.87350463867188
153.9298858642578,124.98319244384766,131.87432861328125
153.91624450683594,124.9776611328125,131.87525939941406
153.9243621826172,124.97891998291016,131.8782196044922
153.88926696777344,124.974609375,131.87991333007812
153.87966918945312,124.9720687866211,131.88682556152344
153.8717498779297,124.97015380859375,131.8860626220703
153.89175415039062,124.96996307373047,131.88613891601562
153.8988494873047,124.97179412841797,131.88778686523438
153.947265625,124.97418212890625,131.88327026367188
153.72799682617188,124.9755859375,131.8871612548828
153.63938903808594,124.97686767578125,131.88229370117188
153.65335083007812,124.97710418701172,131.8843994140625
153.6417694091797,124.97659301757812,131.892333984375
153.6041717529297,124.97718048095703,131.8930206298828
153.64100646972656,124.97032165527344,131.89979553222656
153.70034790039062,124.96861267089844,131.9055938720703
153.74388122558594,124.96472930908203,131.9127960205078
153.8057861328125,124.96755981445312,131.9195098876953
153.91558837890625,124.96623992919922,131.91944885253906
153.90213012695312,124.96369934082031,131.9187774658203
153.98582458496094,124.966064453125,131.92384338378906
153.9934844970703,124.96652221679688,131.92466735839844
153.9145965576172,124.9681167602539,131.948974609375
153.92713928222656,124.97123718261719,131.95826721191406
153.99295043945312,124.96630859375,131.95924377441406
153.96551513671875,124.97177124023438,131.96176147460938
153.90977478027344,124.97376251220703,131.9644317626953
153.89346313476562,124.97781372070312,131.96998596191406
153.8138885498047,124.98700714111328,131.96986389160156
153.82119750976562,124.98908996582031,131.975830078125
153.83804321289062,124.9970474243164,131.9809112548828
153.84005737304688,125.0042724609375,131.98779296875
153.8135223388672,125.00460815429688,131.99085998535156
153.85121154785156,125.00511169433594,131.99391174316406
153.83364868164062,125.00358581542969,131.9939727783203
153.80056762695312,125.00790405273438,131.99131774902344
153.8119354248047,125.00708770751953,131.99447631835938
153.86048889160156,125.01005554199219,132.00279235839844
153.902099609375,125.01341247558594,132.005859375
153.9929962158203,125.01020050048828,132.0105438232422
154.07382202148438,125.0079345703125,132.01084899902344
154.18516540527344,125.00297546386719,132.00796508789062
154.2265625,125.00560760498047,132.00927734375
154.29319763183594,125.007080078125,132.0118865966797
154.26547241210938,125.0063705444336,132.00985717773438
154.28421020507812,125.00592803955078,132.01319885253906
154.32748413085938,125.00055694580078,132.01104736328125
154.28787231445312,125.0029067993164,131.9993438720703
154.28302001953125,125.00572204589844,131.9993133544922
154.23001098632812,125.00286865234375,131.998291015625
154.23724365234375,125.00521087646484,131.99488830566406
154.18646240234375,125.00532531738281,131.99398803710938
154.09951782226562,125.17044067382812,132.17623901367188
154.11094665527344,125.1605224609375,132.1746063232422
154.22186279296875,125.15592193603516,132.1727752685547
154.30831909179688,125.15802001953125,132.17095947265625
154.3800811767578,125.15201568603516,132.17160034179688
154.48117065429688,125.15350341796875,132.1790008544922
154.51490783691406,125.15169525146484,132.1776123046875
154.5784149169922,125.15238952636719,132.1792755126953
154.59463500976562,125.1495590209961,132.18154907226562
154.61233520507812,125.14791107177734,132.1837615966797
154.62747192382812,125.14995574951172,132.18064880371094
154.67462158203125,125.1454086303711,132.17588806152344
154.72154235839844,125.13616943359375,132.17735290527344
154.75640869140625,125.12895965576172,132.17166137695312
154.8410186767578,125.12743377685547,132.17259216308594
154.97010803222656,125.1185531616211,132.17405700683594
155.00987243652344,125.11719512939453,132.17242431640625
155.02371215820312,125.12036895751953,132.1693115234375
155.08827209472656,125.12489318847656,132.16464233398438
155.1190643310547,125.1268310546875,132.1659698486328
155.1302032470703,125.1310806274414,132.1502685546875
155.1723175048828,125.13227081298828,132.14910888671875
155.1910400390625,125.13435363769531,132.15147399902344
155.16859436035156,125.12942504882812,132.15557861328125
155.17955017089844,125.12525939941406,132.1544952392578
155.18154907226562,125.12232971191406,132.15374755859375
155.13539123535156,125.11888885498047,132.15484619140625
155.09771728515625,125.12289428710938,132.1591339111328
155.1251983642578,125.11962127685547,132.16903686523438
155.1202850341797,125.12612915039062,132.17491149902344
155.13504028320312,125.1150894165039,132.1796417236328
155.07037353515625,125.10770416259766,132.16209411621094
155.0550537109375,125.1006851196289,132.1575927734375
155.00318908691406,125.09876251220703,132.1576385498047
154.97650146484375,125.0992202758789,132.15968322753906
155.01939392089844,125.11490631103516,132.164306640625
155.0673828125,125.11449432373047,132.16876220703125
155.08302307128906,125.12244415283203,132.16795349121094
155.08758544921875,125.12408447265625,132.17288208007812
155.07557678222656,125.11962127685547,132.17523193359375
154.99456787109375,125.1181869506836,132.1768035888672
154.91946411132812,125.11648559570312,132.1793975830078
154.91842651367188,125.11632537841797,132.18130493164062
154.87060546875,125.11556243896484,132.1793670654297
154.88021850585938,125.11251068115234,132.1767120361328
154.81101989746094,125.09721374511719,132.1754150390625
154.7628173828125,125.08737182617188,132.17054748535156
154.7670440673828,125.07315063476562,132.16783142089844
154.74407958984375,125.06726837158203,132.16148376464844
154.75546264648438,125.0653305053711,132.16062927246094
154.76332092285156,125.06465911865234,132.16580200195312
154.82264709472656,125.06089782714844,132.17088317871094
154.88668823242188,125.05529022216797,132.16976928710938
154.91908264160156,125.05172729492188,132.16754150390625
154.87176513671875,125.04945373535156,132.1659698486328
154.89959716796875,125.04837036132812,132.1674346923828
154.87045288085938,125.04782104492188,132.17141723632812
154.8448028564453,125.04032135009766,132.17312622070312
154.780517578125,125.0370864868164,132.17575073242188
154.81222534179688,125.03288269042969,132.17689514160156
154.80332946777344,124.99832916259766,132.1792449951172
154.82586669921875,124.99890899658203,132.17852783203125
154.87344360351562,124.989990234375,132.1848907470703
154.9082794189453,124.9900894165039,132.1807403564453
154.88661193847656,124.98107147216797,132.18136596679688
154.8844757080078,124.9776382446289,132.18785095214844
154.9027099609375,124.97256469726562,132.18865966796875
154.91372680664062,124.9629135131836,132.19004821777344
154.97372436523438,124.96029663085938,132.18988037109375
154.95936584472656,124.95684814453125,132.1897735595703
154.91087341308594,124.94879913330078,132.19342041015625
154.874267578125,124.94620513916016,132.1969451904297
154.80963134765625,124.95000457763672,132.19796752929688
154.8234100341797,124.95687103271484,132.197265625
154.7779998779297,124.95616912841797,132.19639587402344
154.62855529785156,124.94856262207031,132.1903533935547
154.54541015625,124.9463882446289,132.18890380859375
154.5324249267578,124.94537353515625,132.18995666503906
154.5596466064453,124.9493408203125,132.18850708007812
154.52203369140625,124.94747924804688,132.18556213378906
154.407958984375,124.95249938964844,132.1786346435547
154.40589904785156,124.9477310180664,132.17958068847656
154.4463653564453,124.94791412353516,132.17330932617188
154.488525390625,124.94539642333984,132.16722106933594
154.5235595703125,124.94295501708984,132.16603088378906
154.56280517578125,124.9438705444336,132.16795349121094
154.61915588378906,124.93925476074219,132.1727294921875
154.6276397705078,124.94219970703125,132.16903686523438
154.64105224609375,124.93562316894531,132.1724395751953
154.6675567626953,124.92972564697266,132.17396545410156
154.72085571289062,124.92159271240234,132.16807556152344
154.71356201171875,124.91972351074219,132.1669921875
154.67221069335938,124.92412567138672,132.16409301757812
154.69618225097656,124.92698669433594,132.16143798828125
154.70933532714844,124.92382049560547,132.16400146484375
154.72897338867188,124.9268798828125,132.1604461669922
154.69293212890625,124.92428588867188,132.16390991210938
154.7080078125,124.9280014038086,132.16513061523438
154.69297790527344,124.933349609375,132.16355895996094
154.62844848632812,124.94144439697266,132.1604461669922
154.59329223632812,124.9423828125,132.1660919189453
154.5762176513672,124.93963623046875,132.16656494140625
154.6024627685547,124.93927001953125,132.16427612304688
154.5554656982422,124.94153594970703,132.16346740722656
154.57933044433594,124.93829345703125,132.16966247558594
154.6014404296875,124.93694305419922,132.1685028076172
154.52276611328125,124.93766021728516,132.1673126220703
154.51541137695312,124.9396743774414,132.16763305664062
154.55459594726562,124.93179321289062,132.16189575195312
154.58384704589844,124.93183898925781,132.16241455078125
154.5231475830078,124.92913818359375,132.16355895996094
154.5316925048828,124.92901611328125,132.16278076171875
154.50804138183594,124.92813873291016,132.15834045410156
154.5348358154297,124.92818450927734,132.15968322753906
154.56431579589844,124.92695617675781,132.16282653808594
154.61376953125,124.92536163330078,132.1647186279297
154.61720275878906,124.92634582519531,132.16172790527344
154.63763427734375,124.92432403564453,132.16232299804688
154.66281127929688,124.92668151855469,132.16192626953125
154.73597717285156,124.92365264892578,132.16099548339844
154.72991943359375,124.9149398803711,132.1497802734375
154.76808166503906,124.91964721679688,132.1470184326172
154.787353515625,124.91333770751953,132.14639282226562
154.8211669921875,124.90876770019531,132.1482696533203
154.7798614501953,124.90581512451172,132.14822387695312
154.7458038330078,124.9046630859375,132.15505981445312
154.6078643798828,124.9150390625,132.1650390625
154.6012420654297,124.91542053222656,132.16452026367188
154.6509552001953,124.91742706298828,132.1651153564453
154.59938049316406,124.91249084472656,132.1708526611328
154.50738525390625,124.91487884521484,132.17076110839844
154.31723022460938,124.9157485961914,132.17391967773438
154.37835693359375,124.91864776611328,132.1757354736328
154.281005859375,124.93521118164062,132.1802520751953
154.23947143554688,124.93809509277344,132.1768341064453
154.10667419433594,124.9307632446289,132.17124938964844
154.0417938232422,124.93102264404297,132.16502380371094
153.96559143066406,124.92369079589844,132.15380859375
153.9495391845703,124.91852569580078,132.1472930908203
153.98338317871094,124.91604614257812,132.14138793945312
154.009033203125,124.90730285644531,132.13780212402344
154.04249572753906,124.90503692626953,132.13726806640625
154.02679443359375,124.90199279785156,132.14218139648438
154.04937744140625,124.90220642089844,132.1409454345703
153.97096252441406,124.90201568603516,132.14358520507812
153.9384307861328,124.90091705322266,132.14637756347656
153.90383911132812,124.89793395996094,132.15176391601562
153.76361083984375,124.89155578613281,132.14251708984375
153.7178955078125,124.89794158935547,132.13551330566406
153.66546630859375,124.90682983398438,132.1372528076172
153.58140563964844,124.9024887084961,132.141357421875
153.56268310546875,124.90718841552734,132.1395721435547
153.5912322998047,124.90827178955078,132.14724731445312
153.51177978515625,124.91470336914062,132.1422119140625
153.6132049560547,124.91188049316406,132.13844299316406
153.65708923339844,124.91136169433594,132.13992309570312
153.72926330566406,124.90672302246094,132.1337127685547
153.7678680419922,124.90740203857422,132.13546752929688
153.8177490234375,124.90431213378906,132.13616943359375
153.7948760986328,124.9032211303711,132.13140869140625
153.80819702148438,124.89314270019531,132.12966918945312
153.84591674804688,124.88988494873047,132.13137817382812
153.9070281982422,124.89231872558594,132.1255340576172
153.9180145263672,124.89274597167969,132.1209716796875
153.93357849121094,124.89236450195312,132.1218719482422
153.9443817138672,124.89264678955078,132.1213836669922
153.93724060058594,124.89762115478516,132.1190185546875
153.9474334716797,124.89208221435547,132.1170196533203
153.97109985351562,124.88958740234375,132.11947631835938
153.98336791992188,124.89051055908203,132.11888122558594
153.93955993652344,124.88969421386719,132.12437438964844
153.94451904296875,124.89042663574219,132.1256866455078
153.9286651611328,124.8919906616211,132.1265411376953
153.92837524414062,124.89632415771484,132.124755859375
153.9556427001953,124.89924621582031,132.12680053710938
153.88050842285156,124.89889526367188,132.12625122070312
153.79502868652344,124.9075927734375,132.13038635253906
153.7970428466797,124.9094467163086,132.12857055664062
153.7443389892578,124.90583801269531,132.13116455078125
153.71327209472656,124.9041748046875,132.1322021484375
153.5962371826172,124.89108276367188,132.12049865722656
153.58277893066406,124.88957977294922,132.1198272705078
153.5817413330078,124.89217376708984,132.1210174560547
153.51052856445312,124.89383697509766,132.12158203125
153.52139282226562,124.89947509765625,132.1232452392578
153.51658630371094,124.89753723144531,132.12806701660156
153.56857299804688,124.89595031738281,132.1316375732422
153.5601806640625,124.8936767578125,132.131103515625
153.52296447753906,124.89376831054688,132.133056640625
153.5712432861328,124.8937759399414,132.13133239746094
153.60386657714844,124.89912414550781,132.13125610351562
153.6698760986328,124.89618682861328,132.1312713623047
153.6686248779297,124.89488983154297,132.130859375
153.6292724609375,124.8852767944336,132.13059997558594
153.61956787109375,124.88601684570312,132.1298370361328
153.60540771484375,124.88756561279297,132.1256866455078
153.5946044921875,124.89307403564453,132.12327575683594
153.4972686767578,124.89425659179688,132.1215057373047
153.49432373046875,124.89388275146484,132.11732482910156
153.5162811279297,124.89253997802734,132.11956787109375
153.46511840820312,124.89334869384766,132.11952209472656
153.51681518554688,124.88939666748047,132.11993408203125
153.53054809570312,124.88762664794922,132.1201629638672
153.52523803710938,124.88892364501953,132.11952209472656
153.58627319335938,124.88870239257812,132.11538696289062
153.65736389160156,124.88689422607422,132.116943359375
153.68267822265625,124.88568878173828,132.11708068847656
153.6984100341797,124.88053894042969,132.1186981201172
153.6995391845703,124.87786865234375,132.11825561523438
153.71385192871094,124.87736511230469,132.11793518066406
153.672119140625,124.87865447998047,132.10536193847656
153.6846466064453,124.87804412841797,132.10708618164062
153.7019805908203,124.88063049316406,132.10855102539062
153.76808166503906,124.88619232177734,132.1087646484375
153.83213806152344,124.8869400024414,132.11212158203125
153.86170959472656,124.88643646240234,132.11688232421875
153.85072326660156,124.8896484375,132.1155548095703
153.81857299804688,124.8904037475586,132.11024475097656
153.78079223632812,124.88611602783203,132.1151123046875
153.75636291503906,124.88479614257812,132.11346435546875
153.72576904296875,124.88695526123047,132.1121368408203
153.71629333496094,124.89014434814453,132.11363220214844
153.6624755859375,124.8906478881836,132.11398315429688
153.7066650390625,124.89028930664062,132.1221923828125
153.7826385498047,124.88710021972656,132.12144470214844
153.813232421875,124.88949584960938,132.12095642089844
153.82777404785156,124.88943481445312,132.12168884277344
153.77658081054688,124.89181518554688,132.1206817626953
153.80857849121094,124.88977813720703,132.1264190673828
153.84458923339844,124.89104461669922,132.12449645996094
153.8722686767578,124.89142608642578,132.13079833984375
153.83160400390625,124.89871978759766,132.1363983154297
153.80316162109375,124.91035461425781,132.1409454345703
153.81411743164062,124.90898132324219,132.1401824951172
153.88087463378906,124.90803527832031,132.14340209960938
153.8595428466797,124.91119384765625,132.1464385986328
153.951904296875,124.905029296875,132.1444549560547
154.0094757080078,124.90513610839844,132.15228271484375
153.94651794433594,124.90798950195312,132.15875244140625
153.97616577148438,124.91109466552734,132.16139221191406
154.02076721191406,124.899658203125,132.15733337402344
153.93287658691406,124.90826416015625,132.1551971435547
153.94570922851562,124.91207885742188,132.16146850585938
153.9007110595703,124.9139633178711,132.1604461669922
153.8887481689453,124.91011047363281,132.15687561035156
153.81959533691406,124.90943908691406,132.148193359375
153.7928466796875,124.90357208251953,132.153564453125
153.77142333984375,124.9050521850586,132.15797424316406
153.68199157714844,124.9076919555664,132.16151428222656
153.64791870117188,124.91120910644531,132.1650848388672
153.6215362548828,124.90982055664062,132.1702117919922
153.5546112060547,124.90747833251953,132.16383361816406
153.59341430664062,124.90494537353516,132.16851806640625
153.6529541015625,124.90218353271484,132.16607666015625
153.7478790283203,124.90314483642578,132.16598510742188
153.70111083984375,124.89727783203125,132.1646270751953
153.7129669189453,124.8946762084961,132.16482543945312
153.781005859375,124.89054107666016,132.16656494140625
153.80831909179688,124.8946533203125,132.16941833496094
153.705810546875,124.88814544677734,132.17135620117188
153.68191528320312,124.88951110839844,132.16868591308594
153.71865844726562,124.89373016357422,132.16888427734375
153.5559539794922,124.8900375366211,132.16610717773438
153.55735778808594,124.89035034179688,132.16403198242188
153.49952697753906,124.88890838623047,132.16400146484375
153.3400421142578,124.8943862915039,132.16966247558594
153.29086303710938,124.9011001586914,132.17205810546875
153.22683715820312,124.90887451171875,132.17254638671875
153.21058654785156,124.91213989257812,132.179931640625
153.12611389160156,124.92205047607422,132.1737060546875
153.05833435058594,124.92176055908203,132.18023681640625
153.02239990234375,124.92719268798828,132.18057250976562
152.9237060546875,124.92679595947266,132.18035888671875
152.80653381347656,124.92375946044922,132.17723083496094
152.75384521484375,124.92311096191406,132.1716766357422
152.65072631835938,124.92025756835938,132.16867065429688
152.65426635742188,124.92017364501953,132.1678924560547
152.63853454589844,124.91986846923828,132.1650390625
152.63157653808594,124.916015625,132.16221618652344
152.6153564453125,124.91287231445312,132.16050720214844
152.64743041992188,124.91346740722656,132.16458129882812
152.5697479248047,124.91179656982422,132.16905212402344
152.5366668701172,124.91091918945312,132.17942810058594
152.43606567382812,124.9205551147461,132.17276000976562
152.34425354003906,124.92757415771484,132.1625518798828
152.2891387939453,124.93563079833984,132.1688232421875
152.2518768310547,124.9366226196289,132.17457580566406
152.12576293945312,124.94283294677734,132.1687469482422
152.11553955078125,124.94667053222656,132.16957092285156
152.14735412597656,124.94486999511719,132.16757202148438
152.1094207763672,124.94087219238281,132.17115783691406
152.14837646484375,124.94102478027344,132.1692352294922
152.12315368652344,124.93931579589844,132.1751708984375
152.08932495117188,124.94196319580078,132.17294311523438
152.14166259765625,124.94685363769531,132.1707000732422
152.1680145263672,124.94501495361328,132.17196655273438
152.1906280517578,124.95033264160156,132.17132568359375
152.197021484375,124.95284271240234,132.1765899658203
152.21038818359375,124.95162963867188,132.17530822753906
152.11886596679688,124.9540786743164,132.1798858642578
151.695556640625,125.0206298828125,132.2679901123047
151.7208709716797,125.01946258544922,132.26747131347656
151.8606414794922,125.014892578125,132.26963806152344
151.93557739257812,125.00435638427734,132.26304626464844
151.95462036132812,125.00762939453125,132.26124572753906
151.89321899414062,125.002197265625,132.26153564453125
151.91259765625,124.99800872802734,132.25433349609375
151.93116760253906,124.99586486816406,132.24745178222656
151.99771118164062,124.98917388916016,132.25086975097656
151.9912872314453,124.98883056640625,132.24880981445312
152.04830932617188,124.99052429199219,132.2511749267578
152.0468292236328,124.99497985839844,132.24850463867188
152.05706787109375,124.99143981933594,132.25177001953125
152.10504150390625,124.98384857177734,132.25540161132812
152.10018920898438,124.9830093383789,132.25146484375
152.0349578857422,124.98200988769531,132.24928283691406
152.05587768554688,124.98374938964844,132.2424774169922
152.03053283691406,124.97799682617188,132.25352478027344
151.98350524902344,124.97610473632812,132.24951171875
151.99403381347656,124.97342681884766,132.2454833984375
151.99891662597656,124.9715576171875,132.23965454101562
152.00389099121094,124.97032928466797,132.24095153808594
152.01893615722656,124.96829223632812,132.24429321289062
151.99134826660156,124.96488189697266,132.2450408935547
151.9859619140625,124.96117401123047,132.24012756347656
151.97671508789062,124.9598617553711,132.2393798828125
151.9646759033203,124.96018981933594,132.23910522460938
152.03201293945312,124.9554672241211,132.24168395996094
152.06814575195312,124.95881652832031,132.23887634277344
152.05535888671875,124.96160888671875,132.2330322265625
152.00567626953125,124.96055603027344,132.2233123779297
152.0185546875,124.9597396850586,132.22181701660156
152.1215057373047,124.95716857910156,132.2222900390625
152.23828125,124.9495849609375,132.20993041992188
152.40016174316406,124.94127655029297,132.19924926757812
152.7797088623047,124.98875427246094,132.240478515625
153.02127075195312,124.9989242553711,132.25172424316406
153.15707397460938,125.01216125488281,132.24778747558594
153.26168823242188,125.00917053222656,132.2625732421875
153.51197814941406,125.01795196533203,132.26441955566406
153.63568115234375,125.03779602050781,132.28134155273438
153.7257537841797,125.0524673461914,132.2857208251953
153.75637817382812,125.06861114501953,132.2990264892578
